,,Burst Start,Burst End,Burst Duration,Edge Event,Interburst Interval,Total Cycle Time,Peaks per Burst,Peak Amp,Peak Time,Attack,Decay,Intraburst Frequency
Mean1,0.12025,0.12025,0.14825,0.027999999999999997,False,0.14375,0.17174999999999999,1,0.4412474053979421,0.13425,0.014000000000000012,0.013999999999999985,35.714285714285715
Mean1,0.292,0.292,0.3225,0.030500000000000027,False,0.14375,0.17425000000000002,1,0.4733392753711975,0.30725,0.015250000000000041,0.015249999999999986,32.78688524590161
Mean1,0.46625,0.46625,0.49475,0.028500000000000025,False,0.14200000000000002,0.17050000000000004,1,0.44708988042342723,0.48,0.013749999999999984,0.01475000000000004,35.08771929824558
Mean1,0.63675,0.63675,0.6645,0.02774999999999994,False,0.14375000000000004,0.17149999999999999,1,0.4407002373909954,0.65075,0.014000000000000012,0.013749999999999929,36.036036036036116
Mean1,0.80825,0.80825,0.8385,0.03025,False,0.14425,0.1745,1,0.46386944025109844,0.82325,0.015000000000000013,0.015249999999999986,33.057851239669425
Mean1,0.98275,0.98275,1.011,0.028249999999999886,False,0.14200000000000013,0.17025,1,0.44666727148364865,0.9965,0.01375000000000004,0.014499999999999846,35.398230088495716
Mean1,1.153,1.153,1.181,0.028000000000000025,False,0.14349999999999996,0.17149999999999999,1,0.4476013857354548,1.167,0.014000000000000012,0.014000000000000012,35.71428571428568
Mean1,1.3245,1.3245,1.35525,0.030750000000000055,False,0.1439999999999999,0.17474999999999996,1,0.4812853467061643,1.3395000000000001,0.015000000000000124,0.01574999999999993,32.52032520325197
Mean1,1.49925,1.49925,1.5275,0.02825000000000011,False,0.14249999999999985,0.17074999999999996,1,0.4423913057611952,1.5130000000000001,0.013750000000000151,0.014499999999999957,35.39823008849544
Mean1,1.67,1.67,1.6975,0.02750000000000008,False,0.14375000000000004,0.17125000000000012,1,0.4366306867913473,1.68375,0.013750000000000151,0.013749999999999929,36.36363636363626
Mean1,1.84125,1.84125,1.8715,0.030249999999999888,False,0.14500000000000024,0.17525000000000013,1,0.4615144824903275,1.85625,0.014999999999999902,0.015249999999999986,33.057851239669546
Mean1,2.0165,2.0165,2.04475,0.028249999999999886,False,0.14250000000000007,0.17074999999999996,1,0.4439871642818245,2.0300000000000002,0.013500000000000068,0.014749999999999819,35.398230088495716
Mean1,2.18725,2.18725,2.21525,0.028000000000000025,False,0.14374999999999982,0.17174999999999985,1,0.4507213882287641,2.20125,0.01399999999999979,0.014000000000000234,35.71428571428568
Mean1,2.359,2.359,2.3895,0.03049999999999997,False,0.14475000000000016,0.17525000000000013,1,0.46939041988582125,2.37425,0.015249999999999986,0.015249999999999986,32.78688524590167
Mean1,2.53425,2.53425,2.56225,0.028000000000000025,False,0.1419999999999999,0.16999999999999993,1,0.4424402770223174,2.548,0.013749999999999929,0.014250000000000096,35.71428571428568
Mean1,2.70425,2.70425,2.73275,0.028499999999999748,False,0.14425,0.17274999999999974,1,0.44392098269336333,2.7182500000000003,0.014000000000000234,0.014499999999999513,35.08771929824592
Mean1,2.877,2.877,2.90725,0.03025000000000011,False,0.1445000000000003,0.1747500000000004,1,0.4669351361646812,2.8925,0.015500000000000291,0.014749999999999819,33.057851239669304
Mean1,3.05175,3.05175,3.07975,0.028000000000000025,False,0.1419999999999999,0.16999999999999993,1,0.4469002120839295,3.06575,0.01399999999999979,0.014000000000000234,35.71428571428568
Mean1,3.22175,3.22175,3.2510000000000003,0.02925000000000022,False,0.1447499999999997,0.17399999999999993,1,0.4538921014514005,3.23575,0.01399999999999979,0.01525000000000043,34.18803418803393
Mean1,3.39575,3.39575,3.42575,0.029999999999999805,False,0.14375000000000027,0.17375000000000007,1,0.4656430105298026,3.411,0.015249999999999986,0.014749999999999819,33.33333333333355
Mean1,3.5695,3.5695,3.597,0.027499999999999858,False,0.14300000000000024,0.1705000000000001,1,0.4378968301969273,3.5835,0.01399999999999979,0.013500000000000068,36.36363636363655
Mean1,3.74,3.74,3.77,0.029999999999999805,False,0.14500000000000002,0.17499999999999982,1,0.45656906560508526,3.75425,0.014249999999999652,0.015750000000000153,33.33333333333355
Mean1,3.915,3.915,3.94425,0.029249999999999776,False,0.14250000000000052,0.1717500000000003,1,0.4663065416119676,3.9295,0.014499999999999957,0.014749999999999819,34.18803418803445
Mean1,4.08675,4.08675,4.11475,0.02799999999999958,False,0.14400000000000013,0.1719999999999997,1,0.4535061174704882,4.10075,0.013999999999999346,0.014000000000000234,35.71428571428625
Mean1,4.25875,4.25875,4.289,0.030249999999999666,False,0.14524999999999988,0.17549999999999955,1,0.4624450187534301,4.2735,0.014750000000000263,0.015499999999999403,33.05785123966979
Mean1,4.43425,4.43425,4.46225,0.02800000000000047,False,0.14250000000000007,0.17050000000000054,1,0.4423411322295011,4.448,0.013750000000000817,0.014249999999999652,35.71428571428512
Mean1,4.60475,4.60475,4.63325,0.028500000000000192,False,0.14499999999999957,0.17349999999999977,1,0.44535057593778393,4.61875,0.014000000000000234,0.014499999999999957,35.087719298245375
Mean1,4.77825,4.77825,4.8085,0.030250000000000554,False,0.14424999999999955,0.1745000000000001,1,0.46690394083843234,4.79375,0.015500000000000291,0.014750000000000263,33.057851239668814
Mean1,4.95275,4.95275,4.9805,0.027750000000000163,False,0.1427499999999995,0.17049999999999965,1,0.44085597871877663,4.96675,0.014000000000000234,0.013749999999999929,36.036036036035824
Mean1,5.12325,5.12325,5.15375,0.03049999999999997,False,0.14500000000000046,0.17550000000000043,1,0.4717522737553927,5.1377500000000005,0.014500000000000846,0.015999999999999126,32.78688524590167
Mean1,5.29875,5.29875,5.32775,0.028999999999999915,False,0.1429999999999998,0.1719999999999997,1,0.45222136245303707,5.313,0.014249999999999652,0.014750000000000263,34.48275862068976
Mean1,5.47075,5.47075,5.49825,0.027499999999999858,False,0.14475000000000016,0.17225000000000001,1,0.43747139693836146,5.4845,0.013749999999999929,0.013749999999999929,36.36363636363655
Mean1,5.643,5.643,5.6735,0.03049999999999997,False,0.14500000000000046,0.17550000000000043,1,0.4629843520760766,5.65825,0.015249999999999986,0.015249999999999986,32.78688524590167
Mean1,5.8185,5.8185,5.8465,0.02799999999999958,False,0.14250000000000007,0.17049999999999965,1,0.4453880329050174,5.8325000000000005,0.014000000000000234,0.013999999999999346,35.71428571428625
Mean1,5.989,5.989,6.0185,0.029500000000000526,False,0.1454999999999993,0.17499999999999982,1,0.45663873119088616,6.00325,0.01425000000000054,0.015249999999999986,33.89830508474516
Mean1,6.164,6.164,6.1935,0.029500000000000526,False,0.1435000000000004,0.17300000000000093,1,0.45848373583749363,6.17875,0.014750000000000263,0.014750000000000263,33.89830508474516
Mean1,6.337000000000001,6.337000000000001,6.3645,0.02749999999999897,False,0.14425000000000043,0.1717499999999994,1,0.4358220663604126,6.350750000000001,0.013749999999999929,0.01374999999999904,36.363636363637724
Mean1,6.50875,6.50875,6.53925,0.03049999999999997,False,0.1457499999999996,0.17624999999999957,1,0.46272694325935226,6.52375,0.01499999999999968,0.015500000000000291,32.78688524590167
Mean1,6.685,6.685,6.712999999999999,0.02799999999999958,False,0.14250000000000096,0.17050000000000054,1,0.4417553364094322,6.69875,0.013750000000000817,0.014249999999998764,35.71428571428625
Mean1,6.8555,6.8555,6.885,0.029499999999999638,False,0.1457500000000005,0.17525000000000013,1,0.46399487716292,6.86975,0.014249999999999652,0.015249999999999986,33.89830508474618
Mean1,7.03075,7.03075,7.06025,0.029499999999999638,False,0.1435000000000004,0.17300000000000004,1,0.4580544750606537,7.0455000000000005,0.014750000000000263,0.014749999999999375,33.89830508474618
Mean1,7.20375,7.20375,7.23125,0.027499999999999858,False,0.14475000000000016,0.17225000000000001,1,0.43632259533169854,7.2177500000000006,0.014000000000000234,0.013499999999999623,36.36363636363655
Mean1,7.376,7.376,7.4065,0.03049999999999997,False,0.14550000000000018,0.17600000000000016,1,0.4615501940298775,7.391,0.01499999999999968,0.015500000000000291,32.78688524590167
Mean1,7.5520000000000005,7.5520000000000005,7.57975,0.027749999999999275,False,0.1429999999999998,0.17074999999999907,1,0.4327316868084122,7.5655,0.013499999999999623,0.014249999999999652,36.036036036036975
Mean1,7.72275,7.72275,7.75225,0.029500000000000526,False,0.1457499999999996,0.17525000000000013,1,0.45861435143907364,7.737,0.01425000000000054,0.015249999999999986,33.89830508474516
Mean1,7.898,7.898,7.9275,0.029500000000000526,False,0.14349999999999952,0.17300000000000004,1,0.4602727706610296,7.91275,0.014750000000000263,0.014750000000000263,33.89830508474516
Mean1,8.071,8.071,8.0985,0.027499999999999858,False,0.14525000000000077,0.17275000000000063,1,0.43677517671268606,8.08475,0.013749999999999929,0.013749999999999929,36.36363636363655
Mean1,8.24375,8.24375,8.27425,0.03049999999999997,False,0.145249999999999,0.17574999999999896,1,0.46499333961600414,8.259,0.015249999999999986,0.015249999999999986,32.78688524590167
Mean1,8.4195,8.4195,8.447000000000001,0.027500000000001634,False,0.14349999999999952,0.17100000000000115,1,0.43577284035909175,8.433250000000001,0.013750000000001705,0.013749999999999929,36.3636363636342
Mean1,8.5905,8.5905,8.6205,0.02999999999999936,False,0.1462500000000002,0.17624999999999957,1,0.45370675071965144,8.6045,0.013999999999999346,0.016000000000000014,33.333333333334046
Mean1,8.76675,8.76675,8.7955,0.028750000000000497,False,0.1429999999999989,0.1717499999999994,1,0.4588633154673265,8.78075,0.013999999999999346,0.014750000000001151,34.782608695651575
Mean1,8.9385,8.9385,8.96675,0.028249999999999886,False,0.1460000000000008,0.17425000000000068,1,0.44217090943581117,8.9525,0.014000000000001123,0.014249999999998764,35.398230088495716
Mean1,9.11275,9.11275,9.142999999999999,0.030249999999998778,False,0.14425000000000132,0.1745000000000001,1,0.46463858766854044,9.128,0.015249999999999986,0.014999999999998792,33.057851239670754
Mean1,9.28725,9.28725,9.3145,0.02725000000000044,False,0.14499999999999957,0.17225000000000001,1,0.43253082342679045,9.30125,0.013999999999999346,0.013250000000001094,36.69724770642142
Mean1,9.4595,9.4595,9.48975,0.030250000000000554,False,0.1462500000000002,0.17650000000000077,1,0.46190404972704513,9.4745,0.015000000000000568,0.015249999999999986,33.057851239668814
Mean1,9.636000000000001,9.636000000000001,9.66375,0.027749999999999275,False,0.1429999999999989,0.17074999999999818,1,0.44157123343842825,9.649750000000001,0.013749999999999929,0.013999999999999346,36.036036036036975
Mean1,9.80675,9.80675,9.83675,0.030000000000001137,False,0.14649999999999963,0.17650000000000077,1,0.46026931299460727,9.821,0.01425000000000054,0.015750000000000597,33.33333333333207
Mean1,9.98325,9.98325,10.012,0.028750000000000497,False,0.1432500000000001,0.1720000000000006,1,0.4514346995871488,9.997250000000001,0.014000000000001123,0.014749999999999375,34.782608695651575
Mean1,10.15525,10.15525,10.1835,0.028249999999999886,False,0.14599999999999902,0.1742499999999989,1,0.44452386350498385,10.16925,0.013999999999999346,0.01425000000000054,35.398230088495716
Mean1,10.3295,10.3295,10.35975,0.030250000000000554,False,0.14450000000000074,0.1747500000000013,1,0.4655070214176673,10.345,0.01550000000000118,0.014749999999999375,33.057851239668814
Mean1,10.50425,10.50425,10.5315,0.027249999999998664,False,0.14550000000000018,0.17274999999999885,1,0.43122192600717346,10.51825,0.013999999999999346,0.013249999999999318,36.697247706423816
Mean1,10.677,10.677,10.7075,0.03049999999999997,False,0.14550000000000018,0.17600000000000016,1,0.4712303151394853,10.69225,0.015249999999999986,0.015249999999999986,32.78688524590167
Mean1,10.853,10.853,10.88075,0.02775000000000105,False,0.14374999999999893,0.17149999999999999,1,0.4358784829880415,10.86675,0.013749999999999929,0.014000000000001123,36.03603603603467
Mean1,11.0245,11.0245,11.05425,0.029749999999999943,False,0.14700000000000024,0.17675000000000018,1,0.45727717592953027,11.0385,0.014000000000001123,0.01574999999999882,33.613445378151326
Mean1,11.20125,11.20125,11.2295,0.028249999999999886,False,0.1432500000000001,0.17149999999999999,1,0.4449749527381115,11.215,0.013749999999999929,0.014499999999999957,35.398230088495716
Mean1,11.37275,11.37275,11.4015,0.028750000000000497,False,0.14700000000000024,0.17575000000000074,1,0.44667690613627575,11.386750000000001,0.014000000000001123,0.014749999999999375,34.782608695651575
Mean1,11.5485,11.5485,11.57775,0.029249999999999332,False,0.14400000000000013,0.17324999999999946,1,0.45579095632327377,11.563,0.014499999999999957,0.014749999999999375,34.18803418803497
Mean1,11.72175,11.72175,11.74975,0.02800000000000047,False,0.1457499999999996,0.17375000000000007,1,0.44692419317132387,11.73575,0.013999999999999346,0.014000000000001123,35.71428571428512
Mean1,11.8955,11.8955,11.925999999999998,0.030499999999998195,False,0.14500000000000135,0.17549999999999955,1,0.46523467580031735,11.91125,0.015750000000000597,0.014749999999997598,32.786885245903576
Mean1,12.071,12.071,12.0985,0.027499999999999858,False,0.14499999999999957,0.17249999999999943,1,0.435184251269651,12.08475,0.013749999999999929,0.013749999999999929,36.36363636363655
Mean1,12.2435,12.2435,12.27375,0.030250000000000554,False,0.14675000000000082,0.17700000000000138,1,0.46157032126526004,12.2585,0.015000000000000568,0.015249999999999986,33.057851239668814
Mean1,12.4205,12.4205,12.448,0.027499999999999858,False,0.14400000000000013,0.17149999999999999,1,0.4377990266079655,12.43425,0.013749999999999929,0.013749999999999929,36.36363636363655
Mean1,12.592,12.592,12.6225,0.03049999999999997,False,0.14674999999999905,0.17724999999999902,1,0.46747578084918556,12.6065,0.014499999999999957,0.016000000000000014,32.78688524590167
Mean1,12.76925,12.76925,12.79725,0.02800000000000047,False,0.14349999999999952,0.17149999999999999,1,0.4362953780917926,12.783,0.013749999999999929,0.01425000000000054,35.71428571428512
Mean1,12.94075,12.94075,12.97025,0.029500000000000526,False,0.14749999999999908,0.1769999999999996,1,0.45269432940226234,12.95475,0.014000000000001123,0.015499999999999403,33.89830508474516
Mean1,13.11775,13.11775,13.14625,0.02850000000000108,False,0.1432500000000001,0.17175000000000118,1,0.446484626313068,13.1315,0.013750000000001705,0.014749999999999375,35.08771929824429
Mean1,13.2895,13.2895,13.31825,0.028750000000000497,False,0.14749999999999908,0.17624999999999957,1,0.45107340873988805,13.30375,0.01425000000000054,0.014499999999999957,34.782608695651575
Mean1,13.46575,13.46575,13.49525,0.029500000000000526,False,0.14349999999999952,0.17300000000000004,1,0.471048077957573,13.480500000000001,0.014750000000001151,0.014749999999999375,33.89830508474516
Mean1,13.63875,13.63875,13.667,0.028249999999999886,False,0.14724999999999966,0.17549999999999955,1,0.43873071176588985,13.653,0.01425000000000054,0.013999999999999346,35.398230088495716
Mean1,13.81425,13.81425,13.844000000000001,0.02975000000000172,False,0.14474999999999838,0.1745000000000001,1,0.46241775785632605,13.82925,0.015000000000000568,0.014750000000001151,33.613445378149315
Mean1,13.98875,13.98875,14.01625,0.027499999999999858,False,0.1465000000000014,0.17400000000000126,1,0.43754956936302,14.0025,0.013749999999999929,0.013749999999999929,36.36363636363655
Mean1,14.16275,14.16275,14.193,0.030249999999998778,False,0.14550000000000018,0.17574999999999896,1,0.4640161828857734,14.1785,0.01574999999999882,0.014499999999999957,33.057851239670754
Mean1,14.3385,14.3385,14.366,0.027499999999999858,False,0.1457499999999996,0.17324999999999946,1,0.43999073546202105,14.352500000000001,0.014000000000001123,0.013499999999998735,36.36363636363655
Mean1,14.51175,14.51175,14.54225,0.03049999999999997,False,0.1457499999999996,0.17624999999999957,1,0.47181075293931,14.52725,0.01550000000000118,0.014999999999998792,32.78688524590167
Mean1,14.687999999999999,14.687999999999999,14.7155,0.027500000000001634,False,0.1457499999999996,0.17325000000000124,1,0.433155233045965,14.702,0.014000000000001123,0.013500000000000512,36.3636363636342
Mean1,14.86125,14.86125,14.8915,0.030250000000000554,False,0.1462500000000002,0.17650000000000077,1,0.4643659525185999,14.87625,0.015000000000000568,0.015249999999999986,33.057851239668814
Mean1,15.03775,15.03775,15.06525,0.027499999999999858,False,0.14499999999999957,0.17249999999999943,1,0.43412043516830395,15.05175,0.013999999999999346,0.013500000000000512,36.36363636363655
Mean1,15.21025,15.21025,15.2405,0.030250000000000554,False,0.14699999999999847,0.17724999999999902,1,0.46258877949879995,15.225,0.014749999999999375,0.01550000000000118,33.057851239668814
Mean1,15.3875,15.3875,15.41525,0.02775000000000105,False,0.14424999999999955,0.1720000000000006,1,0.4424734221930832,15.4015,0.014000000000001123,0.013749999999999929,36.03603603603467
Mean1,15.5595,15.5595,15.59,0.03049999999999997,False,0.14724999999999966,0.17774999999999963,1,0.4697838844822143,15.574250000000001,0.014750000000001151,0.01574999999999882,32.78688524590167
Mean1,15.73725,15.73725,15.76475,0.027499999999999858,False,0.14450000000000074,0.1720000000000006,1,0.4362337008825317,15.751,0.013749999999999929,0.013749999999999929,36.36363636363655
Mean1,15.90925,15.90925,15.9395,0.030250000000000554,False,0.14724999999999788,0.17749999999999844,1,0.4599297099219847,15.92375,0.014499999999999957,0.015750000000000597,33.057851239668814
Mean1,16.08675,16.08675,16.11475,0.028000000000002245,False,0.14399999999999835,0.1720000000000006,1,0.4392223298554172,16.1005,0.013750000000001705,0.01425000000000054,35.71428571428285
Mean1,16.25875,16.25875,16.2885,0.029749999999999943,False,0.1479999999999997,0.17774999999999963,1,0.46084259945129025,16.272750000000002,0.014000000000002899,0.015749999999997044,33.613445378151326
Mean1,16.4365,16.4365,16.4645,0.028000000000002245,False,0.1437500000000007,0.17175000000000296,1,0.45403147338325295,16.45025,0.013750000000001705,0.01425000000000054,35.71428571428285
Mean1,16.60825,16.60825,16.63775,0.02949999999999875,False,0.14824999999999733,0.17774999999999608,1,0.4531653856661903,16.62225,0.013999999999999346,0.015499999999999403,33.8983050847472
Mean1,16.785999999999998,16.785999999999998,16.81425,0.02825000000000344,False,0.14349999999999952,0.17175000000000296,1,0.4444672188266785,16.79975,0.013750000000001705,0.014500000000001734,35.39823008849127
Mean1,16.95775,16.95775,16.98725,0.02949999999999875,False,0.14775000000000205,0.1772500000000008,1,0.45359565208057184,16.972,0.01425000000000054,0.01524999999999821,33.8983050847472
Mean1,17.135,17.135,17.16375,0.02874999999999872,False,0.1437500000000007,0.17249999999999943,1,0.45037217261231993,17.149,0.013999999999999346,0.014749999999999375,34.78260869565372
Mean1,17.3075,17.3075,17.337,0.02949999999999875,False,0.1477499999999985,0.17724999999999724,1,0.4577412387843573,17.32175,0.01425000000000054,0.01524999999999821,33.8983050847472
Mean1,17.48475,17.48475,17.51375,0.029000000000003467,False,0.14349999999999952,0.17250000000000298,1,0.4596807022787562,17.499,0.01425000000000054,0.014750000000002927,34.48275862068553
Mean1,17.65725,17.65725,17.6865,0.029249999999997556,False,0.14775000000000205,0.1769999999999996,1,0.45004643416075724,17.6715,0.01425000000000054,0.014999999999997016,34.188034188037044
Mean1,17.83425,17.83425,17.86325,0.028999999999999915,False,0.14399999999999835,0.17299999999999827,1,0.4548988801003558,17.8485,0.01425000000000054,0.014749999999999375,34.48275862068976
Mean1,18.00725,18.00725,18.035999999999998,0.02874999999999872,False,0.14800000000000324,0.17675000000000196,1,0.4493665142605992,18.021250000000002,0.014000000000002899,0.014749999999995822,34.78260869565372
Mean1,18.184,18.184,18.21325,0.029249999999997556,False,0.1437500000000007,0.17299999999999827,1,0.4571923934072224,18.19825,0.01425000000000054,0.014999999999997016,34.188034188037044
Mean1,18.357,18.357,18.386,0.028999999999999915,False,0.14800000000000324,0.17700000000000315,1,0.4573531560806062,18.37125,0.01425000000000054,0.014749999999999375,34.48275862068976
Mean1,18.534000000000002,18.534000000000002,18.563,0.028999999999996362,False,0.1440000000000019,0.17299999999999827,1,0.46273884263067494,18.54825,0.014249999999996987,0.014749999999999375,34.48275862069398
Mean1,18.707,18.707,18.736,0.028999999999999915,False,0.14849999999999852,0.17749999999999844,1,0.44883269655256247,18.72125,0.01425000000000054,0.014749999999999375,34.48275862068976
Mean1,18.8845,18.8845,18.9135,0.028999999999999915,False,0.1437500000000007,0.17275000000000063,1,0.45954643256986655,18.898500000000002,0.014000000000002899,0.014999999999997016,34.48275862068976
Mean1,19.05725,19.05725,19.08625,0.028999999999999915,False,0.14849999999999852,0.17749999999999844,1,0.45049014684390776,19.0715,0.01425000000000054,0.014749999999999375,34.48275862068976
Mean1,19.23475,19.23475,19.2635,0.028750000000002274,False,0.14399999999999835,0.17275000000000063,1,0.4559585366433198,19.24875,0.014000000000002899,0.014749999999999375,34.78260869564942
Mean1,19.4075,19.4075,19.437,0.029500000000002302,False,0.1479999999999997,0.177500000000002,1,0.46018043565330147,19.42175,0.01425000000000054,0.015250000000001762,33.898305084743114
Mean1,19.585,19.585,19.614,0.028999999999999915,False,0.1437500000000007,0.17275000000000063,1,0.4588542060631162,19.59925,0.01425000000000054,0.014749999999999375,34.48275862068976
Mean1,19.75775,19.75775,19.78725,0.02949999999999875,False,0.14849999999999852,0.17799999999999727,1,0.4540873735755546,19.772000000000002,0.01425000000000054,0.01524999999999821,33.8983050847472
Mean1,19.93575,19.93575,19.96425,0.02850000000000108,False,0.1437500000000007,0.1722500000000018,1,0.4512964773510049,19.9495,0.013750000000001705,0.014749999999999375,35.08771929824429
Mean1,20.108,20.108,20.1375,0.02949999999999875,False,0.14849999999999852,0.17799999999999727,1,0.455750632565325,20.12225,0.01425000000000054,0.01524999999999821,33.8983050847472
Mean1,20.285999999999998,20.285999999999998,20.3145,0.02850000000000108,False,0.1440000000000019,0.17250000000000298,1,0.44923183036670994,20.3,0.014000000000002899,0.014499999999998181,35.08771929824429
Mean1,20.4585,20.4585,20.4885,0.029999999999997584,False,0.14800000000000324,0.17800000000000082,1,0.4647725195466641,20.47275,0.01425000000000054,0.015749999999997044,33.333333333336014
Mean1,20.6365,20.6365,20.66475,0.028249999999999886,False,0.14424999999999955,0.17249999999999943,1,0.4491476064215084,20.65025,0.013749999999998153,0.014500000000001734,35.398230088495716
Mean1,20.809,20.809,20.83875,0.029749999999999943,False,0.14824999999999733,0.17799999999999727,1,0.4596597921400777,20.82325,0.01425000000000054,0.015499999999999403,33.613445378151326
Mean1,20.987,20.987,21.015,0.028000000000002245,False,0.14450000000000074,0.17250000000000298,1,0.4464065935489442,21.00075,0.013750000000001705,0.01425000000000054,35.71428571428285
Mean1,21.1595,21.1595,21.1895,0.029999999999997584,False,0.14825000000000088,0.17824999999999847,1,0.4628496746139125,21.173750000000002,0.01425000000000054,0.015749999999997044,33.333333333336014
Mean1,21.33775,21.33775,21.3655,0.02775000000000105,False,0.14474999999999838,0.17249999999999943,1,0.44386881475153156,21.3515,0.013750000000001705,0.013999999999999346,36.03603603603467
Mean1,21.51025,21.51025,21.541,0.030750000000001165,False,0.14700000000000202,0.17775000000000318,1,0.47701208149795915,21.52525,0.015000000000000568,0.015750000000000597,32.5203252032508
Mean1,21.688000000000002,21.688000000000002,21.71575,0.0277499999999975,False,0.14525000000000077,0.17299999999999827,1,0.44198091002882756,21.70175,0.013749999999998153,0.013999999999999346,36.036036036039285
Mean1,21.861,21.861,21.8915,0.03049999999999997,False,0.14699999999999847,0.17749999999999844,1,0.46684150999838253,21.87575,0.014749999999999375,0.015750000000000597,32.78688524590167
Mean1,22.0385,22.0385,22.066,0.027499999999999858,False,0.14550000000000196,0.17300000000000182,1,0.43982397786553606,22.052500000000002,0.014000000000002899,0.013499999999996959,36.36363636363655
Mean1,22.2115,22.2115,22.241999999999997,0.03049999999999642,False,0.14675000000000438,0.1772500000000008,1,0.467138711527948,22.22625,0.014749999999999375,0.015749999999997044,32.78688524590549
Mean1,22.38875,22.38875,22.4165,0.0277499999999975,False,0.146250000000002,0.1739999999999995,1,0.45389797224882333,22.403,0.014249999999996987,0.013500000000000512,36.036036036039285
Mean1,22.56275,22.56275,22.5935,0.030749999999997613,False,0.1457499999999996,0.17649999999999721,1,0.488143296822474,22.57825,0.015499999999999403,0.01524999999999821,32.52032520325456
Mean1,22.73925,22.73925,22.7665,0.027250000000002217,False,0.14724999999999966,0.17450000000000188,1,0.43597217535915,22.753,0.013750000000001705,0.013500000000000512,36.697247706419034
Mean1,22.91375,22.91375,22.944000000000003,0.03025000000000233,False,0.14574999999999605,0.17599999999999838,1,0.4704794273171955,22.9295,0.015750000000000597,0.014500000000001734,33.057851239666874
Mean1,23.08975,23.08975,23.11725,0.027499999999999858,False,0.14750000000000085,0.1750000000000007,1,0.4418447087802232,23.1035,0.013750000000001705,0.013749999999998153,36.36363636363655
Mean1,23.26475,23.26475,23.295,0.03025000000000233,False,0.14499999999999957,0.1752500000000019,1,0.4699017342621649,23.28025,0.015499999999999403,0.014750000000002927,33.057851239666874
Mean1,23.44,23.44,23.468000000000004,0.028000000000002245,False,0.1474999999999973,0.17549999999999955,1,0.45375351000925124,23.454,0.013999999999999346,0.014000000000002899,35.71428571428285
Mean1,23.6155,23.6155,23.64575,0.030249999999998778,False,0.14450000000000074,0.17474999999999952,1,0.48026571396265616,23.63075,0.01524999999999821,0.015000000000000568,33.057851239670754
Mean1,23.79025,23.79025,23.81825,0.027999999999998693,False,0.14850000000000207,0.17650000000000077,1,0.4455014403491875,23.80425,0.013999999999999346,0.013999999999999346,35.714285714287385
Mean1,23.96675,23.96675,23.9965,0.029749999999999943,False,0.14424999999999955,0.1739999999999995,1,0.4665542670372836,23.9815,0.014749999999999375,0.015000000000000568,33.613445378151326
Mean1,24.14075,24.14075,24.16925,0.02850000000000108,False,0.14874999999999972,0.1772500000000008,1,0.4509161189112168,24.15475,0.013999999999999346,0.014500000000001734,35.08771929824429
Mean1,24.318,24.318,24.34725,0.029249999999997556,False,0.1440000000000019,0.17324999999999946,1,0.4594342314234128,24.332250000000002,0.01425000000000054,0.014999999999997016,34.188034188037044
Mean1,24.49125,24.49125,24.52075,0.02949999999999875,False,0.1479999999999997,0.17749999999999844,1,0.47095956271994954,24.50575,0.014499999999998181,0.015000000000000568,33.8983050847472
Mean1,24.66875,24.66875,24.69775,0.028999999999999915,False,0.1440000000000019,0.17300000000000182,1,0.45692330915964613,24.683,0.01425000000000054,0.014749999999999375,34.48275862068976
Mean1,24.84175,24.84175,24.871,0.029249999999997556,False,0.14874999999999972,0.17799999999999727,1,0.45744377730533503,24.856,0.01425000000000054,0.014999999999997016,34.188034188037044
Mean1,25.01975,25.01975,25.04825,0.02850000000000108,False,0.1440000000000019,0.17250000000000298,1,0.4515267475434511,25.03375,0.014000000000002899,0.014499999999998181,35.08771929824429
Mean1,25.19225,25.19225,25.22175,0.02949999999999875,False,0.14874999999999972,0.17824999999999847,1,0.45926051043284427,25.206500000000002,0.01425000000000054,0.01524999999999821,33.8983050847472
Mean1,25.3705,25.3705,25.399,0.02850000000000108,False,0.1440000000000019,0.17250000000000298,1,0.45868643294943273,25.38475,0.01425000000000054,0.01425000000000054,35.08771929824429
Mean1,25.543000000000003,25.543000000000003,25.573,0.029999999999997584,False,0.14825000000000088,0.17824999999999847,1,0.46430729053409014,25.55725,0.014249999999996987,0.015750000000000597,33.333333333336014
Mean1,25.72125,25.72125,25.74925,0.027999999999998693,False,0.14450000000000074,0.17249999999999943,1,0.44527258896798766,25.735,0.013749999999998153,0.01425000000000054,35.714285714287385
Mean1,25.89375,25.89375,25.924,0.030249999999998778,False,0.1479999999999997,0.17824999999999847,1,0.4644495815150361,25.90825,0.014499999999998181,0.015750000000000597,33.057851239670754
Mean1,26.072,26.072,26.0995,0.027499999999999858,False,0.14499999999999957,0.17249999999999943,1,0.4427751137185883,26.08575,0.013750000000001705,0.013749999999998153,36.36363636363655
Mean1,26.2445,26.2445,26.27525,0.030750000000001165,False,0.14724999999999966,0.17800000000000082,1,0.47517528850562757,26.2595,0.015000000000000568,0.015750000000000597,32.5203252032508
Mean1,26.4225,26.4225,26.45,0.027499999999999858,False,0.1457499999999996,0.17324999999999946,1,0.45183481408117243,26.43625,0.013750000000001705,0.013749999999998153,36.36363636363655
Mean1,26.59575,26.59575,26.625999999999998,0.030249999999998778,False,0.14675000000000082,0.1769999999999996,1,0.4682768762347804,26.61075,0.015000000000000568,0.01524999999999821,33.057851239670754
Mean1,26.77275,26.77275,26.80025,0.027499999999999858,False,0.146250000000002,0.17375000000000185,1,0.4398109476936566,26.78675,0.014000000000002899,0.013499999999996959,36.36363636363655
Mean1,26.9465,26.9465,26.976999999999997,0.03049999999999642,False,0.146250000000002,0.1767499999999984,1,0.4687686865873952,26.961750000000002,0.015250000000001762,0.015249999999994657,32.78688524590549
Mean1,27.12325,27.12325,27.15075,0.027499999999999858,False,0.14649999999999963,0.1739999999999995,1,0.4421875443953343,27.13725,0.014000000000002899,0.013499999999996959,36.36363636363655
Mean1,27.29725,27.29725,27.328000000000003,0.030750000000004718,False,0.1454999999999984,0.17625000000000313,1,0.4813133122157028,27.31275,0.015500000000002956,0.015250000000001762,32.52032520324704
Mean1,27.4735,27.4735,27.500999999999998,0.027499999999996305,False,0.1472500000000032,0.17474999999999952,1,0.44889212589673677,27.48725,0.013749999999998153,0.013749999999998153,36.36363636364125
Mean1,27.64825,27.64825,27.6785,0.030249999999998778,False,0.14525000000000077,0.17549999999999955,1,0.4722139172622449,27.66375,0.015499999999999403,0.014749999999999375,33.057851239670754
Mean1,27.82375,27.82375,27.85125,0.027499999999999858,False,0.14750000000000085,0.1750000000000007,1,0.44580449090217217,27.837500000000002,0.013750000000001705,0.013749999999998153,36.36363636363655
Mean1,27.99875,27.99875,28.029,0.030249999999998778,False,0.14499999999999957,0.17524999999999835,1,0.4727911591293061,28.01425,0.015499999999999403,0.014749999999999375,33.057851239670754
Mean1,28.174,28.174,28.2015,0.027499999999999858,False,0.1479999999999997,0.17549999999999955,1,0.4385654823695015,28.188,0.013999999999999346,0.013500000000000512,36.36363636363655
Mean1,28.3495,28.3495,28.38,0.03049999999999997,False,0.1440000000000019,0.17450000000000188,1,0.48839699917323093,28.36475,0.015250000000001762,0.01524999999999821,32.78688524590167
Mean1,28.524,28.524,28.552,0.027999999999998693,False,0.14750000000000085,0.17549999999999955,1,0.44565406878739944,28.538,0.013999999999999346,0.013999999999999346,35.714285714287385
Mean1,28.6995,28.6995,28.7295,0.030000000000001137,False,0.14474999999999838,0.17474999999999952,1,0.47145180209595006,28.714750000000002,0.015250000000001762,0.014749999999999375,33.33333333333207
Mean1,28.87425,28.87425,28.9025,0.028249999999999886,False,0.1479999999999997,0.17624999999999957,1,0.44931796252909306,28.88825,0.013999999999999346,0.01425000000000054,35.398230088495716
Mean1,29.0505,29.0505,29.08025,0.029749999999999943,False,0.14424999999999955,0.1739999999999995,1,0.4701475775601481,29.0655,0.015000000000000568,0.014749999999999375,33.613445378151326
Mean1,29.2245,29.2245,29.253,0.02850000000000108,False,0.14825000000000088,0.17675000000000196,1,0.45962678915725996,29.23875,0.01425000000000054,0.01425000000000054,35.08771929824429
Mean1,29.40125,29.40125,29.430999999999997,0.02974999999999639,False,0.1440000000000019,0.1737499999999983,1,0.4821267547612236,29.416,0.014749999999999375,0.014999999999997016,33.61344537815534
Mean1,29.575,29.575,29.60375,0.028750000000002274,False,0.14899999999999736,0.17774999999999963,1,0.4485310997380999,29.58925,0.01425000000000054,0.014500000000001734,34.78260869564942
Mean1,29.75275,29.75275,29.78175,0.028999999999999915,False,0.1440000000000019,0.17300000000000182,1,0.4589567195573938,29.767,0.01425000000000054,0.014749999999999375,34.48275862068976
Mean1,29.92575,29.92575,29.95475,0.028999999999999915,False,0.14874999999999972,0.17774999999999963,1,0.45472671594773145,29.93975,0.013999999999999346,0.015000000000000568,34.48275862068976
Mean1,30.1035,30.1035,30.13225,0.02874999999999872,False,0.1437500000000007,0.17249999999999943,1,0.4555812207801669,30.1175,0.013999999999999346,0.014749999999999375,34.78260869565372
Mean1,30.276,30.276,30.30575,0.029749999999999943,False,0.14849999999999852,0.17824999999999847,1,0.4730171810429162,30.2905,0.014500000000001734,0.01524999999999821,33.613445378151326
Mean1,30.45425,30.45425,30.48275,0.02850000000000108,False,0.1440000000000019,0.17250000000000298,1,0.4618181021231827,30.468,0.013750000000001705,0.014749999999999375,35.08771929824429
Mean1,30.62675,30.62675,30.6565,0.029749999999999943,False,0.14849999999999852,0.17824999999999847,1,0.460358250039198,30.641000000000002,0.01425000000000054,0.015499999999999403,33.613445378151326
Mean1,30.805,30.805,30.83325,0.028249999999999886,False,0.14424999999999955,0.17249999999999943,1,0.4463940083146129,30.81875,0.013750000000001705,0.014499999999998181,35.398230088495716
Mean1,30.9775,30.9775,31.00775,0.03025000000000233,False,0.1479999999999997,0.17825000000000202,1,0.4640922809561954,30.99175,0.01425000000000054,0.01600000000000179,33.057851239666874
Mean1,31.15575,31.15575,31.18375,0.027999999999998693,False,0.14450000000000074,0.17249999999999943,1,0.44490823362873116,31.1695,0.013749999999998153,0.01425000000000054,35.714285714287385
Mean1,31.32825,31.32825,31.35875,0.03049999999999997,False,0.14750000000000085,0.17800000000000082,1,0.48031968377238216,31.343,0.014749999999999375,0.015750000000000597,32.78688524590167
Mean1,31.50625,31.50625,31.534000000000002,0.02775000000000105,False,0.14524999999999721,0.17299999999999827,1,0.44783453017112607,31.52,0.013749999999998153,0.014000000000002899,36.03603603603467
Mean1,31.67925,31.67925,31.70975,0.03049999999999997,False,0.14724999999999966,0.17774999999999963,1,0.4708761014662944,31.694,0.014749999999999375,0.015750000000000597,32.78688524590167
Mean1,31.857,31.857,31.8845,0.027499999999999858,False,0.14624999999999844,0.1737499999999983,1,0.4430246431635086,31.871000000000002,0.014000000000002899,0.013499999999996959,36.36363636363655
Mean1,32.03075,32.03075,32.06125,0.030500000000003524,False,0.146250000000002,0.1767500000000055,1,0.4720971782129595,32.046,0.015250000000001762,0.015250000000001762,32.78688524589785
Mean1,32.2075,32.2075,32.235,0.027499999999996305,False,0.14724999999999966,0.17474999999999596,1,0.44063472686790056,32.2215,0.013999999999995794,0.013500000000000512,36.36363636364125
Mean1,32.38225,32.38225,32.413000000000004,0.030750000000004718,False,0.14499999999999602,0.17575000000000074,1,0.4910789817924277,32.398,0.01575000000000415,0.015000000000000568,32.52032520324704
Mean1,32.558,32.558,32.5855,0.02750000000000341,False,0.14799999999999613,0.17549999999999955,1,0.44619486188990837,32.57175,0.013750000000001705,0.013750000000001705,36.363636363631855
Mean1,32.7335,32.7335,32.76375,0.03025000000000233,False,0.14474999999999483,0.17499999999999716,1,0.472825711887739,32.749,0.015500000000002956,0.014749999999999375,33.057851239666874
Mean1,32.9085,32.9085,32.9365,0.028000000000005798,False,0.14849999999999852,0.17650000000000432,1,0.4476020731552753,32.9225,0.014000000000002899,0.014000000000002899,35.71428571427832
Mean1,33.085,33.085,33.11475,0.029749999999999943,False,0.14424999999999955,0.1739999999999995,1,0.470804879777395,33.09975,0.014749999999999375,0.015000000000000568,33.613445378151326
Mean1,33.259,33.259,33.2875,0.02850000000000108,False,0.1492500000000021,0.17775000000000318,1,0.4495090649515831,33.273,0.014000000000002899,0.014499999999998181,35.08771929824429
Mean1,33.43675,33.43675,33.466,0.029249999999997556,False,0.14374999999999716,0.1729999999999947,1,0.4737267481744659,33.451,0.014249999999996987,0.015000000000000568,34.188034188037044
Mean1,33.60975,33.60975,33.639,0.02925000000000466,False,0.149249999999995,0.17849999999999966,1,0.45713411699761597,33.624,0.014250000000004093,0.015000000000000568,34.18803418802874
Mean1,33.78825,33.78825,33.81675,0.02850000000000108,False,0.14424999999999955,0.17275000000000063,1,0.4515313898838656,33.802,0.013750000000001705,0.014749999999999375,35.08771929824429
Mean1,33.961,33.961,33.99075,0.029749999999999943,False,0.14874999999999972,0.17849999999999966,1,0.4599329610783615,33.97525,0.014250000000004093,0.01549999999999585,33.613445378151326
Mean1,34.1395,34.1395,34.1675,0.027999999999998693,False,0.14500000000000313,0.17300000000000182,1,0.44771940659025034,34.1535,0.014000000000002899,0.013999999999995794,35.714285714287385
Mean1,34.3125,34.3125,34.343,0.030500000000003524,False,0.14774999999999494,0.17824999999999847,1,0.4730650771932028,34.3275,0.015000000000000568,0.015500000000002956,32.78688524589785
Mean1,34.49075,34.49075,34.51875,0.027999999999998693,False,0.1457499999999996,0.1737499999999983,1,0.4638292109162654,34.50475,0.014000000000002899,0.013999999999995794,35.714285714287385
Mean1,34.6645,34.6645,34.695,0.030500000000003524,False,0.14650000000000318,0.1770000000000067,1,0.46897831343155977,34.67975,0.015250000000001762,0.015250000000001762,32.78688524589785
Mean1,34.8415,34.8415,34.869,0.027499999999996305,False,0.14750000000000085,0.17499999999999716,1,0.4450509322021904,34.8555,0.013999999999995794,0.013500000000000512,36.36363636364125
Mean1,35.0165,35.0165,35.047,0.03049999999999642,False,0.14525000000000432,0.17575000000000074,1,0.47285367581883525,35.03225,0.015749999999997044,0.014749999999999375,32.78688524590549
Mean1,35.19225,35.19225,35.22,0.0277499999999975,False,0.14874999999999972,0.17649999999999721,1,0.44628022695680875,35.206250000000004,0.014000000000002899,0.0137499999999946,36.036036036039285
Mean1,35.36875,35.36875,35.39875,0.030000000000001137,False,0.14424999999999955,0.17425000000000068,1,0.4823520098430229,35.38375,0.015000000000000568,0.015000000000000568,33.33333333333207
Mean1,35.543,35.543,35.57175,0.028750000000002274,False,0.149249999999995,0.17799999999999727,1,0.45688707101343606,35.557,0.014000000000002899,0.014749999999999375,34.78260869564942
Mean1,35.721,35.721,35.75,0.029000000000003467,False,0.14424999999999955,0.173250000000003,1,0.458428825636268,35.73525,0.014250000000004093,0.014749999999999375,34.48275862068553
Mean1,35.89425,35.89425,35.924,0.029749999999999943,False,0.1490000000000009,0.17875000000000085,1,0.4601090654351798,35.908500000000004,0.014250000000004093,0.01549999999999585,33.613445378151326
Mean1,36.073,36.073,36.101,0.027999999999998693,False,0.14475000000000193,0.17275000000000063,1,0.44731164885725494,36.08675,0.013750000000001705,0.014249999999996987,35.714285714287385
Mean1,36.24575,36.24575,36.275999999999996,0.030249999999995225,False,0.14850000000000563,0.17875000000000085,1,0.4668983333046849,36.26025,0.014499999999998181,0.015749999999997044,33.05785123967464
Mean1,36.4245,36.4245,36.45225,0.0277499999999975,False,0.1457499999999996,0.1734999999999971,1,0.45568234195229235,36.4385,0.013999999999995794,0.013750000000001705,36.036036036039285
Mean1,36.598,36.598,36.6285,0.030500000000003524,False,0.14674999999999727,0.1772500000000008,1,0.47686792367544956,36.61325,0.015250000000001762,0.015250000000001762,32.78688524589785
Mean1,36.77525,36.77525,36.80275,0.02750000000000341,False,0.14774999999999494,0.17524999999999835,1,0.44297242892208,36.78925,0.014000000000002899,0.013500000000000512,36.363636363631855
Mean1,36.9505,36.9505,36.98075,0.03025000000000233,False,0.1454999999999984,0.17575000000000074,1,0.4734685685129173,36.966,0.015500000000002956,0.014749999999999375,33.057851239666874
Mean1,37.12625,37.12625,37.15425,0.027999999999998693,False,0.14875000000000682,0.1767500000000055,1,0.4489214143349855,37.14,0.013750000000001705,0.014249999999996987,35.714285714287385
Mean1,37.303000000000004,37.303000000000004,37.333,0.02999999999999403,False,0.14424999999999955,0.17424999999999358,1,0.48127173168357273,37.318,0.014999999999993463,0.015000000000000568,33.333333333339965
Mean1,37.47725,37.47725,37.507,0.029749999999999943,False,0.1490000000000009,0.17875000000000085,1,0.478885960985571,37.49175,0.014500000000005286,0.015249999999994657,33.613445378151326
Mean1,37.656,37.656,37.68425,0.028249999999999886,False,0.14500000000000313,0.173250000000003,1,0.44747542508311083,37.66975,0.013750000000001705,0.014499999999998181,35.398230088495716
Mean1,37.82925,37.82925,37.8595,0.030249999999995225,False,0.14850000000000563,0.17875000000000085,1,0.46548636192807347,37.84375,0.014499999999998181,0.015749999999997044,33.05785123967464
Mean1,38.008,38.008,38.03575,0.0277499999999975,False,0.1460000000000008,0.1737499999999983,1,0.4419401042068613,38.02175,0.0137499999999946,0.014000000000002899,36.036036036039285
Mean1,38.18175,38.18175,38.21225,0.03049999999999642,False,0.14700000000000557,0.177500000000002,1,0.46983784233712095,38.19675,0.015000000000000568,0.01549999999999585,32.78688524590549
Mean1,38.35925,38.35925,38.38675,0.027499999999996305,False,0.14800000000000324,0.17549999999999955,1,0.4423238875631935,38.373,0.0137499999999946,0.013750000000001705,36.36363636364125
Mean1,38.53475,38.53475,38.56525,0.03049999999999642,False,0.14475000000000193,0.17524999999999835,1,0.4875403708151468,38.55025,0.01549999999999585,0.015000000000000568,32.78688524590549
Mean1,38.71,38.71,38.73825,0.028249999999999886,False,0.1494999999999962,0.17774999999999608,1,0.44695799853564927,38.724000000000004,0.014000000000002899,0.014249999999996987,35.398230088495716
Mean1,38.88775,38.88775,38.91675,0.029000000000003467,False,0.14475000000000193,0.1737500000000054,1,0.4619974154790019,38.902,0.014250000000004093,0.014749999999999375,34.48275862068553
Mean1,39.0615,39.0615,39.091,0.02949999999999875,False,0.1494999999999962,0.17899999999999494,1,0.45966571247437654,39.07575,0.014249999999996987,0.015250000000001762,33.8983050847472
Mean1,39.2405,39.2405,39.2685,0.028000000000005798,False,0.14524999999999721,0.173250000000003,1,0.4487178972254813,39.25425,0.013750000000001705,0.014250000000004093,35.71428571427832
Mean1,39.41375,39.41375,39.4445,0.030749999999997613,False,0.14775000000000205,0.17849999999999966,1,0.47825499229810614,39.42875,0.015000000000000568,0.015749999999997044,32.52032520325456
Mean1,39.59225,39.59225,39.62,0.0277499999999975,False,0.14724999999999966,0.17499999999999716,1,0.45624958922616304,39.60625,0.014000000000002899,0.0137499999999946,36.036036036039285
Mean1,39.76725,39.76725,39.7975,0.03025000000000233,False,0.1460000000000008,0.17625000000000313,1,0.47069848960032284,39.783,0.01575000000000415,0.014499999999998181,33.057851239666874
Mean1,39.9435,39.9435,39.97125,0.0277499999999975,False,0.1492500000000021,0.1769999999999996,1,0.446089154835001,39.95725,0.013750000000001705,0.013999999999995794,36.036036036039285
Mean1,40.1205,40.1205,40.15,0.02949999999999875,False,0.14475000000000193,0.17425000000000068,1,0.46633604109238336,40.135,0.014499999999998181,0.015000000000000568,33.8983050847472
Mean1,40.29475,40.29475,40.324,0.029249999999997556,False,0.1495000000000033,0.17875000000000085,1,0.4573051696385026,40.309,0.014249999999996987,0.015000000000000568,34.188034188037044
Mean1,40.4735,40.4735,40.50225,0.02874999999999517,False,0.14500000000000313,0.1737499999999983,1,0.46733364366443325,40.487500000000004,0.014000000000002899,0.01474999999999227,34.78260869565802
Mean1,40.64725,40.64725,40.67825,0.030999999999998806,False,0.14775000000000205,0.17875000000000085,1,0.4874624820790718,40.66225,0.015000000000000568,0.015999999999998238,32.258064516130275
Mean1,40.826,40.826,40.85325,0.027250000000002217,False,0.14775000000000205,0.17500000000000426,1,0.43958625967137194,40.83975,0.013750000000001705,0.013500000000000512,36.697247706419034
Mean1,41.001000000000005,41.001000000000005,41.0315,0.03049999999999642,False,0.1454999999999984,0.17599999999999483,1,0.4738346929832093,41.01675,0.015749999999997044,0.014749999999999375,32.78688524590549
Mean1,41.177,41.177,41.20525,0.028249999999999886,False,0.1495000000000033,0.17775000000000318,1,0.4494426230848366,41.191,0.014000000000002899,0.014249999999996987,35.398230088495716
Mean1,41.35475,41.35475,41.38399999999999,0.02924999999999045,False,0.14475000000000904,0.1739999999999995,1,0.4633530759785609,41.36925,0.014499999999998181,0.01474999999999227,34.18803418804535
Mean1,41.52875,41.52875,41.5585,0.029749999999999943,False,0.1494999999999962,0.17924999999999613,1,0.46831377413384706,41.543,0.014249999999996987,0.015500000000002956,33.613445378151326
Mean1,41.708,41.708,41.73625,0.028249999999999886,False,0.1457499999999996,0.1739999999999995,1,0.4669567199553231,41.722,0.014000000000002899,0.014249999999996987,35.398230088495716
Mean1,41.882,41.882,41.9125,0.030500000000003524,False,0.14750000000000085,0.17800000000000438,1,0.4699465189296782,41.897,0.015000000000000568,0.015500000000002956,32.78688524589785
Mean1,42.06,42.06,42.0875,0.027499999999996305,False,0.14825000000000443,0.17575000000000074,1,0.44454187279016455,42.073750000000004,0.013750000000001705,0.0137499999999946,36.36363636364125
Mean1,42.23575,42.23575,42.266000000000005,0.03025000000000233,False,0.14524999999999721,0.17549999999999955,1,0.47422858929536776,42.25125,0.01549999999999585,0.01475000000000648,33.057851239666874
Mean1,42.41125,42.41125,42.43975,0.028499999999993975,False,0.15025000000000688,0.17875000000000085,1,0.45093833972953623,42.42525,0.013999999999995794,0.014499999999998181,35.087719298253035
Mean1,42.59,42.59,42.619,0.028999999999996362,False,0.14450000000000074,0.1734999999999971,1,0.4664546829732643,42.604,0.013999999999995794,0.015000000000000568,34.48275862069398
Mean1,42.7635,42.7635,42.794,0.03049999999999642,False,0.14874999999999972,0.17924999999999613,1,0.4687593523343921,42.778,0.014499999999998181,0.015999999999998238,32.78688524590549
Mean1,42.94275,42.94275,42.9705,0.027750000000004604,False,0.14699999999999847,0.17475000000000307,1,0.442656497176463,42.95675,0.014000000000002899,0.013750000000001705,36.036036036030055
Mean1,43.1175,43.1175,43.148,0.030500000000003524,False,0.14624999999999488,0.1767499999999984,1,0.47439078037148324,43.1335,0.015999999999998238,0.014500000000005286,32.78688524589785
Mean1,43.29425,43.29425,43.32225,0.027999999999998693,False,0.1497500000000045,0.17775000000000318,1,0.4524537912895029,43.30825,0.014000000000002899,0.013999999999995794,35.714285714287385
Mean1,43.472,43.472,43.50125,0.029249999999997556,False,0.14525000000000432,0.17450000000000188,1,0.46338057101753155,43.4865,0.014499999999998181,0.014749999999999375,34.188034188037044
Mean1,43.6465,43.6465,43.6765,0.02999999999999403,False,0.1492500000000021,0.17924999999999613,1,0.4747774227702716,43.66075,0.014249999999996987,0.015749999999997044,33.333333333339965
Mean1,43.82575,43.82575,43.8535,0.0277499999999975,False,0.14650000000000318,0.17425000000000068,1,0.449649085309031,43.8395,0.013750000000001705,0.013999999999995794,36.036036036039285
Mean1,44.0,44.0,44.0305,0.030500000000003524,False,0.14699999999999847,0.177500000000002,1,0.47413055398208864,44.01525,0.015250000000001762,0.015250000000001762,32.78688524589785
Mean1,44.1775,44.1775,44.20525,0.0277499999999975,False,0.1492500000000021,0.1769999999999996,1,0.44936481987960764,44.1915,0.013999999999995794,0.013750000000001705,36.036036036039285
Mean1,44.3545,44.3545,44.38425,0.029749999999999943,False,0.14499999999999602,0.17474999999999596,1,0.46773177923730475,44.3695,0.015000000000000568,0.014749999999999375,33.613445378151326
Mean1,44.52925,44.52925,44.55825,0.029000000000003467,False,0.15024999999999977,0.17925000000000324,1,0.45709679725206787,44.54325,0.014000000000002899,0.015000000000000568,34.48275862068553
Mean1,44.7085,44.7085,44.73675,0.028249999999999886,False,0.1457499999999996,0.1739999999999995,1,0.4593506456694186,44.722500000000004,0.014000000000002899,0.014249999999996987,35.398230088495716
Mean1,44.8825,44.8825,44.91325,0.030749999999997613,False,0.14750000000000085,0.17824999999999847,1,0.47466573460730843,44.8975,0.015000000000000568,0.015749999999997044,32.52032520325456
Mean1,45.06075,45.06075,45.08825,0.02750000000000341,False,0.149249999999995,0.1767499999999984,1,0.44557956145271055,45.0745,0.013750000000001705,0.013750000000001705,36.363636363631855
Mean1,45.2375,45.2375,45.26725,0.029749999999999943,False,0.14525000000000432,0.17500000000000426,1,0.4716662708571172,45.2525,0.015000000000000568,0.014749999999999375,33.613445378151326
Mean1,45.4125,45.4125,45.44175,0.029249999999997556,False,0.15024999999999977,0.17949999999999733,1,0.4581819450877805,45.42675,0.014249999999996987,0.015000000000000568,34.188034188037044
Mean1,45.592,45.592,45.62025,0.028249999999999886,False,0.1460000000000008,0.17425000000000068,1,0.44967390770752097,45.60575,0.013750000000001705,0.014499999999998181,35.398230088495716
Mean1,45.76625,45.76625,45.797,0.030749999999997613,False,0.14724999999999966,0.17799999999999727,1,0.48619600743648833,45.7815,0.015250000000001762,0.01549999999999585,32.52032520325456
Mean1,45.94425,45.94425,45.97175,0.02750000000000341,False,0.1492500000000021,0.1767500000000055,1,0.4475144126423373,45.95825,0.014000000000002899,0.013500000000000512,36.363636363631855
Mean1,46.121,46.121,46.151,0.030000000000001137,False,0.14524999999999721,0.17524999999999835,1,0.4705208652086269,46.136250000000004,0.015250000000001762,0.014749999999999375,33.33333333333207
Mean1,46.29625,46.29625,46.32575,0.02949999999999875,False,0.14999999999999858,0.17949999999999733,1,0.46098326947704965,46.3105,0.014249999999996987,0.015250000000001762,33.8983050847472
Mean1,46.47575,46.47575,46.50375,0.027999999999998693,False,0.146250000000002,0.17425000000000068,1,0.44895033899227443,46.4895,0.013750000000001705,0.014249999999996987,35.714285714287385
Mean1,46.65,46.65,46.68025,0.03025000000000233,False,0.14775000000000205,0.17800000000000438,1,0.4680569645615236,46.66475,0.014749999999999375,0.015500000000002956,33.057851239666874
Mean1,46.828,46.828,46.856,0.027999999999998693,False,0.149249999999995,0.1772499999999937,1,0.4636049841492912,46.842,0.013999999999995794,0.014000000000002899,35.714285714287385
Mean1,47.00525,47.00525,47.035,0.029749999999999943,False,0.14525000000000432,0.17500000000000426,1,0.4686383056450789,47.02,0.01475000000000648,0.014999999999993463,33.613445378151326
Mean1,47.18025,47.18025,47.21,0.029749999999999943,False,0.14999999999999858,0.17974999999999852,1,0.4628138219205091,47.1945,0.014249999999996987,0.015500000000002956,33.613445378151326
Mean1,47.36,47.36,47.38775,0.0277499999999975,False,0.14675000000000438,0.17450000000000188,1,0.4469304606341918,47.37375,0.013750000000001705,0.013999999999995794,36.036036036039285
Mean1,47.5345,47.5345,47.565,0.03049999999999642,False,0.14699999999999847,0.17749999999999488,1,0.4727759977532169,47.550000000000004,0.015500000000002956,0.014999999999993463,32.78688524590549
Mean1,47.711999999999996,47.711999999999996,47.74025,0.028250000000006992,False,0.14974999999999739,0.17800000000000438,1,0.46503808736065616,47.726,0.014000000000002899,0.014250000000004093,35.39823008848681
Mean1,47.89,47.89,47.91925,0.029249999999997556,False,0.1454999999999984,0.17474999999999596,1,0.4683092960381768,47.9045,0.014499999999998181,0.014749999999999375,34.188034188037044
Mean1,48.06475,48.06475,48.09475,0.030000000000001137,False,0.1495000000000033,0.17950000000000443,1,0.46507224544824877,48.079,0.014250000000004093,0.015749999999997044,33.33333333333207
Mean1,48.24425,48.24425,48.27175,0.027499999999996305,False,0.14800000000000324,0.17549999999999955,1,0.44405682536336866,48.258,0.013750000000001705,0.0137499999999946,36.36363636364125
Mean1,48.41975,48.41975,48.45025,0.03049999999999642,False,0.1460000000000008,0.17649999999999721,1,0.47564007110490786,48.43525,0.015500000000002956,0.014999999999993463,32.78688524590549
Mean1,48.59625,48.59625,48.62475,0.02850000000000108,False,0.15075000000000216,0.17925000000000324,1,0.4546302999345174,48.61025,0.014000000000002899,0.014499999999998181,35.08771929824429
Mean1,48.7755,48.7755,48.803999999999995,0.028499999999993975,False,0.1460000000000079,0.17450000000000188,1,0.46337954390111963,48.78925,0.013750000000001705,0.01474999999999227,35.087719298253035
Mean1,48.95,48.95,48.981,0.030999999999998806,False,0.14750000000000085,0.17849999999999966,1,0.4934858505526442,48.96525,0.015249999999994657,0.01575000000000415,32.258064516130275
Mean1,49.1285,49.1285,49.156000000000006,0.02750000000000341,False,0.14974999999999739,0.1772500000000008,1,0.4446464696977126,49.142250000000004,0.013750000000001705,0.013750000000001705,36.363636363631855
Mean1,49.30575,49.30575,49.3355,0.029749999999999943,False,0.14524999999999721,0.17499999999999716,1,0.47008339701366536,49.320750000000004,0.015000000000000568,0.014749999999999375,33.613445378151326
Mean1,49.48075,49.48075,49.5105,0.029749999999999943,False,0.15024999999999977,0.17999999999999972,1,0.4612948236188052,49.495000000000005,0.014250000000004093,0.01549999999999585,33.613445378151326
Mean1,49.66075,49.66075,49.6885,0.0277499999999975,False,0.14700000000000557,0.17475000000000307,1,0.44609648320160283,49.6745,0.013750000000001705,0.013999999999995794,36.036036036039285
Mean1,49.8355,49.8355,49.86625,0.030749999999997613,False,0.14675000000000438,0.177500000000002,1,0.4864621038705881,49.85125,0.015749999999997044,0.015000000000000568,32.52032520325456
Mean1,50.013000000000005,50.013000000000005,50.042,0.028999999999996362,False,0.15050000000000097,0.17949999999999733,1,0.4716957769642787,50.02725,0.014249999999996987,0.014749999999999375,34.48275862069398
Mean1,50.1925,50.1925,50.22075,0.028249999999999886,False,0.14649999999999608,0.17474999999999596,1,0.4498237390519336,50.206,0.013500000000000512,0.014749999999999375,35.398230088495716
Mean1,50.36725,50.36725,50.39775,0.030500000000003524,False,0.14799999999999613,0.17849999999999966,1,0.47340069647288124,50.382,0.014749999999999375,0.01575000000000415,32.78688524589785
Mean1,50.54575,50.54575,50.57325,0.02750000000000341,False,0.15050000000000097,0.17800000000000438,1,0.44626599998099686,50.5595,0.013750000000001705,0.013750000000001705,36.363636363631855
Mean1,50.72375,50.72375,50.753,0.029249999999997556,False,0.1454999999999984,0.17474999999999596,1,0.46633470277444133,50.73825,0.014499999999998181,0.014749999999999375,34.188034188037044
Mean1,50.8985,50.8985,50.9285,0.030000000000001137,False,0.14974999999999739,0.17974999999999852,1,0.4627580256672593,50.91275,0.014250000000004093,0.015749999999997044,33.33333333333207
Mean1,51.07825,51.07825,51.10625,0.028000000000005798,False,0.14799999999999613,0.17600000000000193,1,0.46374717992523473,51.0925,0.014250000000004093,0.013750000000001705,35.71428571427832
Mean1,51.25425,51.25425,51.2845,0.03025000000000233,False,0.146250000000002,0.17650000000000432,1,0.4737292894413188,51.26975,0.015500000000002956,0.014749999999999375,33.057851239666874
Mean1,51.43075,51.43075,51.45975,0.028999999999996362,False,0.15075000000000216,0.17974999999999852,1,0.4553269790889955,51.44475,0.013999999999995794,0.015000000000000568,34.48275862069398
Mean1,51.6105,51.6105,51.6385,0.027999999999998693,False,0.14699999999999847,0.17499999999999716,1,0.45089240796032765,51.62425,0.013750000000001705,0.014249999999996987,35.714285714287385
Mean1,51.7855,51.7855,51.81625,0.030749999999997613,False,0.14700000000000557,0.17775000000000318,1,0.4759875154796693,51.801,0.015500000000002956,0.015249999999994657,32.52032520325456
Mean1,51.96325,51.96325,51.9915,0.028249999999999886,False,0.15124999999999744,0.17949999999999733,1,0.4663053218845482,51.97725,0.013999999999995794,0.014250000000004093,35.398230088495716
Mean1,52.14275,52.14275,52.1715,0.028750000000002274,False,0.1460000000000008,0.17475000000000307,1,0.4677871303280505,52.15675,0.014000000000002899,0.014749999999999375,34.78260869564942
Mean1,52.3175,52.3175,52.348,0.03049999999999642,False,0.14800000000000324,0.17849999999999966,1,0.4691411903874746,52.332,0.014499999999998181,0.015999999999998238,32.78688524590549
Mean1,52.496,52.496,52.52375,0.0277499999999975,False,0.15024999999999977,0.17799999999999727,1,0.44465492528299433,52.51,0.013999999999995794,0.013750000000001705,36.036036036039285
Mean1,52.674,52.674,52.7035,0.02949999999999875,False,0.1457499999999996,0.17524999999999835,1,0.4659358085479057,52.68875,0.014749999999999375,0.014749999999999375,33.8983050847472
Mean1,52.84925,52.84925,52.87925,0.030000000000001137,False,0.1495000000000033,0.17950000000000443,1,0.46469731352932836,52.8635,0.014250000000004093,0.015749999999997044,33.33333333333207
Mean1,53.02875,53.02875,53.05675,0.027999999999998693,False,0.14874999999999972,0.1767499999999984,1,0.4631222300294645,53.04275,0.013999999999995794,0.014000000000002899,35.714285714287385
Mean1,53.2055,53.2055,53.236000000000004,0.030500000000003524,False,0.1454999999999984,0.17600000000000193,1,0.49041679992254933,53.221000000000004,0.015500000000002956,0.015000000000000568,32.78688524589785
Mean1,53.3815,53.3815,53.411,0.02949999999999875,False,0.15075000000000216,0.1802500000000009,1,0.4568644095661614,53.39575,0.014249999999996987,0.015250000000001762,33.8983050847472
Mean1,53.56175,53.56175,53.5895,0.0277499999999975,False,0.14775000000000205,0.17549999999999955,1,0.4446536791535285,53.5755,0.0137499999999946,0.014000000000002899,36.036036036039285
Mean1,53.73725,53.73725,53.76775,0.03049999999999642,False,0.14624999999999488,0.1767499999999913,1,0.47482303059964504,53.753,0.015749999999997044,0.014749999999999375,32.78688524590549
Mean1,53.913999999999994,53.913999999999994,53.9425,0.028500000000008185,False,0.15099999999999625,0.17950000000000443,1,0.45191852825903944,53.928000000000004,0.014000000000010004,0.014499999999998181,35.087719298235534
Mean1,54.0935,54.0935,54.122,0.02850000000000108,False,0.14699999999999847,0.17549999999999955,1,0.4611324732163331,54.1075,0.014000000000002899,0.014499999999998181,35.08771929824429
Mean1,54.269,54.269,54.29975,0.030750000000004718,False,0.14699999999999847,0.17775000000000318,1,0.4904929939487207,54.28425,0.015250000000001762,0.015500000000002956,32.52032520324704
Mean1,54.44675,54.44675,54.47475,0.027999999999998693,False,0.15149999999999864,0.17949999999999733,1,0.44668611989147083,54.460750000000004,0.014000000000002899,0.013999999999995794,35.714285714287385
Mean1,54.62625,54.62625,54.65475,0.02850000000000108,False,0.146250000000002,0.17475000000000307,1,0.4561741899375898,54.64,0.013750000000001705,0.014749999999999375,35.08771929824429
Mean1,54.801,54.801,54.8315,0.03049999999999642,False,0.14849999999999852,0.17899999999999494,1,0.4701839910816274,54.81575,0.014749999999999375,0.015749999999997044,32.78688524590549
Mean1,54.98,54.98,55.0075,0.02750000000000341,False,0.14999999999999858,0.177500000000002,1,0.44687290810386837,54.99375,0.013750000000001705,0.013750000000001705,36.363636363631855
Mean1,55.1575,55.1575,55.18725,0.029749999999999943,False,0.1460000000000008,0.17575000000000074,1,0.478087788957678,55.17225,0.014749999999999375,0.015000000000000568,33.613445378151326
Mean1,55.33325,55.33325,55.36375,0.030500000000003524,False,0.1492500000000021,0.17975000000000563,1,0.47995707287580947,55.34775,0.014499999999998181,0.016000000000005343,32.78688524589785
Mean1,55.513000000000005,55.513000000000005,55.5405,0.027499999999996305,False,0.1490000000000009,0.17649999999999721,1,0.44045564079650745,55.52675,0.0137499999999946,0.013750000000001705,36.36363636364125
Mean1,55.6895,55.6895,55.7195,0.02999999999999403,False,0.146250000000002,0.17624999999999602,1,0.4690231920136102,55.704750000000004,0.015250000000001762,0.01474999999999227,33.333333333339965
Mean1,55.86575,55.86575,55.89525,0.02949999999999875,False,0.15050000000000097,0.17999999999999972,1,0.4585255791504595,55.87975,0.014000000000002899,0.01549999999999585,33.8983050847472
Mean1,56.04575,56.04575,56.0735,0.027750000000004604,False,0.14774999999999494,0.17549999999999955,1,0.44407040018314564,56.0595,0.013750000000001705,0.014000000000002899,36.036036036030055
Mean1,56.22125,56.22125,56.251999999999995,0.030749999999997613,False,0.1460000000000079,0.1767500000000055,1,0.49314155841670765,56.23725,0.016000000000005343,0.01474999999999227,32.52032520325456
Mean1,56.398,56.398,56.427,0.028999999999996362,False,0.15100000000000335,0.17999999999999972,1,0.46076600001165974,56.41225,0.014249999999996987,0.014749999999999375,34.48275862069398
Mean1,56.578,56.578,56.60625,0.028249999999999886,False,0.14699999999999847,0.17524999999999835,1,0.44800447200436083,56.591750000000005,0.013750000000001705,0.014499999999998181,35.398230088495716
Mean1,56.75325,56.75325,56.78375,0.03049999999999642,False,0.14725000000000676,0.17775000000000318,1,0.4719348047259924,56.7685,0.015250000000001762,0.015249999999994657,32.78688524590549
Mean1,56.931000000000004,56.931000000000004,56.958999999999996,0.027999999999991587,False,0.15125000000000455,0.17924999999999613,1,0.4498810471270899,56.945,0.013999999999995794,0.013999999999995794,35.714285714296444
Mean1,57.11025,57.11025,57.13875,0.02850000000000108,False,0.14674999999999727,0.17524999999999835,1,0.45012838712790537,57.12425,0.014000000000002899,0.014499999999998181,35.08771929824429
Mean1,57.2855,57.2855,57.3165,0.030999999999998806,False,0.14750000000000085,0.17849999999999966,1,0.48749832422533357,57.30075,0.015250000000001762,0.015749999999997044,32.258064516130275
Mean1,57.464,57.464,57.49175,0.027750000000004604,False,0.15099999999999625,0.17875000000000085,1,0.44505322202808834,57.478,0.014000000000002899,0.013750000000001705,36.036036036030055
Mean1,57.64275,57.64275,57.67175,0.029000000000003467,False,0.146250000000002,0.17525000000000546,1,0.45983946650476637,57.657000000000004,0.014250000000004093,0.014749999999999375,34.48275862068553
Mean1,57.818000000000005,57.818000000000005,57.84825,0.030249999999995225,False,0.1490000000000009,0.17924999999999613,1,0.46696936439056175,57.8325,0.014499999999998181,0.015749999999997044,33.05785123967464
Mean1,57.99725,57.99725,58.02475,0.027499999999996305,False,0.15024999999999977,0.17774999999999608,1,0.44564504891357243,58.011250000000004,0.014000000000002899,0.013499999999993406,36.36363636364125
Mean1,58.175,58.175,58.20475,0.029749999999999943,False,0.1460000000000008,0.17575000000000074,1,0.4745148479085944,58.189750000000004,0.01475000000000648,0.014999999999993463,33.613445378151326
Mean1,58.35075,58.35075,58.3815,0.030750000000004718,False,0.1490000000000009,0.17975000000000563,1,0.48171811816627924,58.365500000000004,0.01475000000000648,0.015999999999998238,32.52032520324704
Mean1,58.5305,58.5305,58.55775,0.02724999999999511,False,0.14999999999999858,0.1772499999999937,1,0.44123204484172757,58.54425,0.0137499999999946,0.013500000000000512,36.6972477064286
Mean1,58.70775,58.70775,58.7375,0.029749999999999943,False,0.146250000000002,0.17600000000000193,1,0.46632498051465165,58.72275,0.015000000000000568,0.014749999999999375,33.613445378151326
Mean1,58.88375,58.88375,58.91375,0.030000000000001137,False,0.14999999999999858,0.17999999999999972,1,0.4623561318309098,58.898,0.014250000000004093,0.015749999999997044,33.33333333333207
Mean1,59.06375,59.06375,59.09125,0.02750000000000341,False,0.1494999999999962,0.1769999999999996,1,0.44301353434835583,59.07775,0.014000000000002899,0.013500000000000512,36.363636363631855
Mean1,59.24075,59.24075,59.27075,0.030000000000001137,False,0.1460000000000008,0.17600000000000193,1,0.4740163744680086,59.256,0.015250000000001762,0.014749999999999375,33.33333333333207
Mean1,59.41675,59.41675,59.446999999999996,0.030249999999995225,False,0.15000000000000568,0.1802500000000009,1,0.47936738371957743,59.43125,0.014499999999998181,0.015749999999997044,33.05785123967464
Mean1,59.597,59.597,59.6245,0.027499999999996305,False,0.1494999999999962,0.1769999999999925,1,0.44004813039557866,59.61075,0.013750000000001705,0.0137499999999946,36.36363636364125
Mean1,59.773999999999994,59.773999999999994,59.80375,0.02975000000000705,False,0.1460000000000008,0.17575000000000784,1,0.47294988109947766,59.78875,0.01475000000000648,0.015000000000000568,33.6134453781433
Mean1,59.94975,59.94975,59.9795,0.029749999999999943,False,0.15050000000000097,0.1802500000000009,1,0.46332856674386197,59.96425,0.014499999999998181,0.015250000000001762,33.613445378151326
Mean1,60.13,60.13,60.158,0.027999999999998693,False,0.14824999999999733,0.17624999999999602,1,0.4652277182575296,60.14425,0.014249999999996987,0.013750000000001705,35.714285714287385
Mean1,60.30625,60.30625,60.3365,0.03025000000000233,False,0.14650000000000318,0.1767500000000055,1,0.4712963105953506,60.32175,0.015500000000002956,0.014749999999999375,33.057851239666874
Mean1,60.483000000000004,60.483000000000004,60.51225,0.029249999999997556,False,0.15099999999999625,0.1802499999999938,1,0.4599875626656747,60.49725,0.014249999999996987,0.015000000000000568,34.188034188037044
Mean1,60.66325,60.66325,60.691,0.027750000000004604,False,0.14824999999999733,0.17600000000000193,1,0.45262478235451054,60.677,0.013750000000001705,0.014000000000002899,36.036036036030055
Mean1,60.83925,60.83925,60.87,0.030749999999997613,False,0.1457499999999996,0.17649999999999721,1,0.4936985263303639,60.855000000000004,0.01575000000000415,0.014999999999993463,32.52032520325456
Mean1,61.01575,61.01575,61.04475,0.029000000000003467,False,0.15125000000000455,0.18025000000000801,1,0.4532378044680636,61.03,0.014250000000004093,0.014749999999999375,34.48275862068553
Mean1,61.196000000000005,61.196000000000005,61.224,0.027999999999991587,False,0.14700000000000557,0.17499999999999716,1,0.44702014756455455,61.20975,0.0137499999999946,0.014249999999996987,35.714285714296444
Mean1,61.371,61.371,61.4015,0.03049999999999642,False,0.14699999999999847,0.17749999999999488,1,0.47281933983172875,61.38675,0.015749999999997044,0.014749999999999375,32.78688524590549
Mean1,61.5485,61.5485,61.5775,0.029000000000003467,False,0.15075000000000216,0.17975000000000563,1,0.46321164416545496,61.563,0.014500000000005286,0.014499999999998181,34.48275862068553
Mean1,61.72825,61.72825,61.75675,0.028499999999993975,False,0.14650000000000318,0.17499999999999716,1,0.4580610540152055,61.742000000000004,0.013750000000001705,0.01474999999999227,35.087719298253035
Mean1,61.90325,61.90325,61.93375,0.030500000000003524,False,0.14799999999999613,0.17849999999999966,1,0.46964276439819397,61.918,0.014749999999999375,0.01575000000000415,32.78688524589785
Mean1,62.08175,62.08175,62.10925,0.02750000000000341,False,0.15074999999999505,0.17824999999999847,1,0.448841868294154,62.0955,0.013750000000001705,0.013750000000001705,36.363636363631855
Mean1,62.26,62.26,62.28925,0.02925000000000466,False,0.1457499999999996,0.17500000000000426,1,0.462844410196909,62.27425,0.014250000000004093,0.015000000000000568,34.18803418802874
Mean1,62.435,62.435,62.4655,0.03049999999999642,False,0.14874999999999972,0.17924999999999613,1,0.4720206613607024,62.44925,0.014249999999996987,0.01624999999999943,32.78688524590549
Mean1,62.61425,62.61425,62.641999999999996,0.0277499999999975,False,0.14900000000000801,0.1767500000000055,1,0.45275195569316506,62.62825,0.014000000000002899,0.0137499999999946,36.036036036039285
Mean1,62.791000000000004,62.791000000000004,62.821000000000005,0.030000000000001137,False,0.1457499999999925,0.17574999999999363,1,0.4697933043286475,62.80625,0.015249999999994657,0.01475000000000648,33.33333333333207
Mean1,62.96675,62.96675,62.99625,0.029500000000005855,False,0.15074999999999505,0.1802500000000009,1,0.4590469019144158,62.981,0.014250000000004093,0.015250000000001762,33.898305084739036
Mean1,63.147,63.147,63.17475,0.027750000000004604,False,0.14724999999999255,0.17499999999999716,1,0.4440545326613584,63.16075,0.013750000000001705,0.014000000000002899,36.036036036030055
Mean1,63.321999999999996,63.321999999999996,63.3525,0.030500000000003524,False,0.14675000000000438,0.1772500000000079,1,0.4725632990709661,63.3375,0.015500000000002956,0.015000000000000568,32.78688524589785
Mean1,63.49925,63.49925,63.5275,0.028249999999999886,False,0.15074999999999505,0.17899999999999494,1,0.45739727359825183,63.51325,0.013999999999995794,0.014250000000004093,35.398230088495716
Mean1,63.67825,63.67825,63.707,0.028750000000002274,False,0.1457499999999996,0.17450000000000188,1,0.4598702676534947,63.69225,0.014000000000002899,0.014749999999999375,34.78260869564942
Mean1,63.85275,63.85275,63.88325,0.03049999999999642,False,0.14850000000000563,0.17900000000000205,1,0.4681632870532123,63.8675,0.014749999999999375,0.015749999999997044,32.78688524590549
Mean1,64.03175,64.03175,64.05925,0.02750000000000341,False,0.14999999999999147,0.17749999999999488,1,0.4460703107631644,64.0455,0.013750000000001705,0.013750000000001705,36.363636363631855
Mean1,64.20925,64.20925,64.23899999999999,0.029749999999992838,False,0.14550000000001262,0.17525000000000546,1,0.4652707435948231,64.224,0.01475000000000648,0.014999999999986358,33.613445378159355
Mean1,64.3845,64.3845,64.41425,0.029749999999992838,False,0.15000000000000568,0.17974999999999852,1,0.46157444227938793,64.3985,0.013999999999995794,0.015749999999997044,33.613445378159355
Mean1,64.56425,64.56425,64.592,0.0277499999999975,False,0.14799999999999613,0.17574999999999363,1,0.45679222987859014,64.578,0.013750000000001705,0.013999999999995794,36.036036036039285
Mean1,64.74,64.74,64.7705,0.030500000000003524,False,0.1460000000000008,0.17650000000000432,1,0.48282133289884505,64.75575,0.015750000000011255,0.01474999999999227,32.78688524589785
Mean1,64.9165,64.9165,64.94525,0.028750000000002274,False,0.15125000000000455,0.18000000000000682,1,0.45299329723784737,64.9305,0.013999999999995794,0.01475000000000648,34.78260869564942
Mean1,65.0965,65.0965,65.1245,0.027999999999991587,False,0.14700000000000557,0.17499999999999716,1,0.4484349057625222,65.11,0.013499999999993406,0.014499999999998181,35.714285714296444
Mean1,65.2715,65.2715,65.30199999999999,0.030499999999989313,False,0.14700000000000557,0.17749999999999488,1,0.47352708946681576,65.28675,0.015249999999994657,0.015249999999994657,32.786885245913126
Mean1,65.449,65.449,65.477,0.028000000000005798,False,0.15075000000000216,0.17875000000000796,1,0.4480763685666902,65.46300000000001,0.014000000000010004,0.013999999999995794,35.71428571427832
Mean1,65.62775,65.62775,65.6565,0.028749999999988063,False,0.1460000000000008,0.17474999999998886,1,0.458812647519464,65.642,0.014249999999989882,0.014499999999998181,34.78260869566662
Mean1,65.8025,65.8025,65.83325,0.030750000000011823,False,0.14824999999999022,0.17900000000000205,1,0.47491503961856,65.8175,0.015000000000000568,0.015750000000011255,32.52032520323953
Mean1,65.9815,65.9815,66.00925,0.0277499999999975,False,0.15024999999999977,0.17799999999999727,1,0.44994202395417876,65.9955,0.014000000000010004,0.013749999999987494,36.036036036039285
Mean1,66.1595,66.1595,66.189,0.02949999999999875,False,0.1457500000000067,0.17525000000000546,1,0.4668397430667619,66.174,0.014500000000012392,0.014999999999986358,33.8983050847472
Mean1,66.33475,66.33475,66.365,0.030249999999995225,False,0.1495000000000033,0.17974999999999852,1,0.4642611319224473,66.349,0.014250000000004093,0.015999999999991132,33.05785123967464
Mean1,66.5145,66.5145,66.54225,0.0277499999999975,False,0.14849999999999852,0.17624999999999602,1,0.4469280473280798,66.52850000000001,0.014000000000010004,0.013749999999987494,36.036036036039285
Mean1,66.69075,66.69075,66.72125,0.030500000000003524,False,0.1457500000000067,0.17625000000001023,1,0.4754949942335853,66.70625,0.015500000000002956,0.015000000000000568,32.78688524589785
Mean1,66.867,66.867,66.89625,0.02924999999999045,False,0.15100000000001046,0.1802500000000009,1,0.4565369321410101,66.881,0.013999999999995794,0.015249999999994657,34.18803418804535
Mean1,67.04725,67.04725,67.07525,0.027999999999991587,False,0.14724999999999966,0.17524999999999125,1,0.4584041260016542,67.061,0.013750000000001705,0.014249999999989882,35.714285714296444
Mean1,67.2225,67.2225,67.25325,0.030749999999997613,False,0.14650000000000318,0.1772500000000008,1,0.47868936669227546,67.2385,0.016000000000005343,0.01474999999999227,32.52032520325456
Mean1,67.39975,67.39975,67.42875,0.028999999999996362,False,0.15125000000000455,0.1802500000000009,1,0.45671153458295083,67.414,0.014250000000004093,0.01474999999999227,34.48275862069398
Mean1,67.58,67.58,67.608,0.028000000000005798,False,0.14724999999999966,0.17525000000000546,1,0.4502119215407638,67.59375,0.013750000000001705,0.014250000000004093,35.71428571427832
Mean1,67.75525,67.75525,67.786,0.030749999999997613,False,0.14700000000000557,0.17775000000000318,1,0.4773227568560048,67.771,0.015749999999997044,0.015000000000000568,32.52032520325456
Mean1,67.933,67.933,67.9615,0.028499999999993975,False,0.15174999999999272,0.1802499999999867,1,0.4538154116428144,67.947,0.013999999999995794,0.014499999999998181,35.087719298253035
Mean1,68.11325,68.11325,68.1415,0.028249999999999886,False,0.14675000000001148,0.17500000000001137,1,0.46479406516940863,68.127,0.013750000000001705,0.014499999999998181,35.398230088495716
Mean1,68.28825,68.28825,68.319,0.030749999999997613,False,0.14700000000000557,0.17775000000000318,1,0.4795698900950043,68.30375000000001,0.015500000000002956,0.015249999999994657,32.52032520325456
Mean1,68.46600000000001,68.46600000000001,68.49475,0.028749999999988063,False,0.15149999999999864,0.1802499999999867,1,0.4566853617970468,68.48025,0.014249999999989882,0.014499999999998181,34.78260869566662
Mean1,68.64625,68.64625,68.6745,0.028249999999999886,False,0.14675000000001148,0.17500000000001137,1,0.45228243795964185,68.66,0.013750000000001705,0.014499999999998181,35.398230088495716
Mean1,68.82125,68.82125,68.852,0.030749999999997613,False,0.14749999999999375,0.17824999999999136,1,0.4770184839275957,68.83675,0.015499999999988745,0.015250000000008868,32.52032520325456
Mean1,68.9995,68.9995,69.02775,0.028249999999999886,False,0.15149999999999864,0.17974999999999852,1,0.45630019147167206,69.01350000000001,0.014000000000010004,0.014249999999989882,35.398230088495716
Mean1,69.17925,69.17925,69.20775,0.028500000000008185,False,0.14699999999999136,0.17549999999999955,1,0.46225587427274356,69.19325,0.014000000000010004,0.014499999999998181,35.087719298235534
Mean1,69.35475,69.35475,69.3855,0.030749999999997613,False,0.14724999999999966,0.17799999999999727,1,0.4881337903294465,69.37025,0.015500000000002956,0.015249999999994657,32.52032520325456
Mean1,69.53275,69.53275,69.56125,0.028500000000008185,False,0.15175000000000693,0.18025000000001512,1,0.45581867317924085,69.547,0.014250000000004093,0.014250000000004093,35.087719298235534
Mean1,69.71300000000001,69.71300000000001,69.74125,0.028249999999985675,False,0.14750000000000796,0.17574999999999363,1,0.45270945393967,69.72675,0.013749999999987494,0.014499999999998181,35.39823008851352
Mean1,69.88875,69.88875,69.91925,0.030500000000003524,False,0.14699999999999136,0.17749999999999488,1,0.47811626989112677,69.90425,0.015500000000002956,0.015000000000000568,32.78688524589785
Mean1,70.06625,70.06625,70.09525,0.028999999999996362,False,0.15150000000001285,0.1805000000000092,1,0.4594467554867719,70.0805,0.014250000000004093,0.01474999999999227,34.48275862069398
Mean1,70.24675,70.24675,70.27475,0.027999999999991587,False,0.14825000000000443,0.17624999999999602,1,0.44725637967202825,70.26050000000001,0.013750000000001705,0.014249999999989882,35.714285714296444
Mean1,70.423,70.423,70.45375,0.030749999999997613,False,0.14624999999999488,0.1769999999999925,1,0.49689122508832745,70.43875,0.015749999999997044,0.015000000000000568,32.52032520325456
Mean1,70.6,70.6,70.62925,0.02925000000000466,False,0.15175000000000693,0.1810000000000116,1,0.46274154898447767,70.61425,0.014250000000004093,0.015000000000000568,34.18803418802874
Mean1,70.781,70.781,70.8085,0.0274999999999892,False,0.1490000000000009,0.1764999999999901,1,0.4498502863679268,70.7945,0.013499999999993406,0.013999999999995794,36.36363636365064
Mean1,70.9575,70.9575,70.98775,0.030250000000009436,False,0.14649999999998897,0.1767499999999984,1,0.481508860163643,70.973,0.015500000000002956,0.01475000000000648,33.05785123965911
Mean1,71.13425,71.13425,71.16425,0.030000000000001137,False,0.15050000000000807,0.1805000000000092,1,0.4684363866863658,71.1485,0.014250000000004093,0.015749999999997044,33.33333333333207
Mean1,71.31475,71.31475,71.3425,0.0277499999999975,False,0.15024999999999977,0.17799999999999727,1,0.4503059693056005,71.32875,0.013999999999995794,0.013750000000001705,36.036036036039285
Mean1,71.49275,71.49275,71.52275,0.030000000000001137,False,0.14624999999999488,0.17624999999999602,1,0.48777263943745164,71.50775,0.015000000000000568,0.015000000000000568,33.33333333333207
Mean1,71.669,71.669,71.6995,0.030500000000003524,False,0.149249999999995,0.17974999999999852,1,0.4763641749320253,71.6835,0.014499999999998181,0.016000000000005343,32.78688524589785
Mean1,71.84875,71.84875,71.8765,0.0277499999999975,False,0.15200000000000102,0.17974999999999852,1,0.45233809529572694,71.86275,0.014000000000010004,0.013749999999987494,36.036036036039285
Mean1,72.0285,72.0285,72.05725,0.028750000000002274,False,0.14700000000000557,0.17575000000000784,1,0.46361345734766524,72.04225,0.013750000000001705,0.015000000000000568,34.78260869564942
Mean1,72.20425,72.20425,72.235,0.030749999999997613,False,0.14775000000000205,0.17849999999999966,1,0.48064227330030546,72.2195,0.015249999999994657,0.015500000000002956,32.52032520325456
Mean1,72.38275,72.38275,72.41125,0.028499999999993975,False,0.15200000000000102,0.180499999999995,1,0.4607414445971192,72.397,0.014250000000004093,0.014249999999989882,35.087719298253035
Mean1,72.56325,72.56325,72.59175,0.028500000000008185,False,0.14849999999999852,0.1770000000000067,1,0.46469229695967385,72.57725,0.014000000000010004,0.014499999999998181,35.087719298235534
Mean1,72.74025,72.74025,72.771,0.030749999999997613,False,0.14650000000000318,0.1772500000000008,1,0.5003999123723407,72.756,0.015749999999997044,0.015000000000000568,32.52032520325456
Mean1,72.9175,72.9175,72.94725,0.029749999999992838,False,0.15099999999999625,0.18074999999998909,1,0.4666562844427961,72.93175000000001,0.014250000000004093,0.015499999999988745,33.613445378159355
Mean1,73.09825,73.09825,73.126,0.02775000000001171,False,0.15075000000000216,0.17850000000001387,1,0.45083684275035957,73.11225,0.014000000000010004,0.013750000000001705,36.03603603602083
Mean1,73.27675,73.27675,73.30625,0.02949999999999875,False,0.14699999999999136,0.1764999999999901,1,0.47187251661491986,73.2915,0.01474999999999227,0.01475000000000648,33.8983050847472
Mean1,73.45325,73.45325,73.484,0.030749999999997613,False,0.14875000000000682,0.17950000000000443,1,0.47964095250381733,73.468,0.01475000000000648,0.015999999999991132,32.52032520325456
Mean1,73.63275,73.63275,73.661,0.028249999999999886,False,0.1522499999999951,0.180499999999995,1,0.458979153437081,73.64675,0.013999999999995794,0.014250000000004093,35.398230088495716
Mean1,73.81325,73.81325,73.84175,0.028500000000008185,False,0.14824999999999022,0.1767499999999984,1,0.47086499974365104,73.82725,0.014000000000010004,0.014499999999998181,35.087719298235534
Mean1,73.99,73.99,74.02025,0.030250000000009436,False,0.14724999999999966,0.1775000000000091,1,0.4808251810982013,74.0055,0.015500000000002956,0.01475000000000648,33.05785123965911
Mean1,74.1675,74.1675,74.1975,0.030000000000001137,False,0.15074999999998795,0.18074999999998909,1,0.4674311112953609,74.182,0.014499999999998181,0.015500000000002956,33.33333333333207
Mean1,74.34825,74.34825,74.376,0.02775000000001171,False,0.15124999999999034,0.17900000000000205,1,0.4509918194548513,74.36225,0.014000000000010004,0.013750000000001705,36.03603603602083
Mean1,74.52725,74.52725,74.5565,0.02925000000000466,False,0.14724999999999966,0.17650000000000432,1,0.47135404769980566,74.54175000000001,0.014500000000012392,0.01474999999999227,34.18803418802874
Mean1,74.70375,74.70375,74.73425,0.030500000000003524,False,0.1487499999999926,0.17924999999999613,1,0.47639395569820386,74.7185,0.01475000000000648,0.015749999999997044,32.78688524589785
Mean1,74.883,74.883,74.91225,0.02925000000000466,False,0.15174999999999272,0.18099999999999739,1,0.4797007730294103,74.89725,0.014250000000004093,0.015000000000000568,34.18803418802874
Mean1,75.064,75.064,75.09175,0.02775000000001171,False,0.14974999999999739,0.1775000000000091,1,0.4526449193505103,75.07775,0.013750000000001705,0.014000000000010004,36.03603603602083
Mean1,75.2415,75.2415,75.27175,0.030249999999995225,False,0.14700000000000557,0.1772500000000008,1,0.47712458994204854,75.257,0.015500000000002956,0.01474999999999227,33.05785123967464
Mean1,75.41875,75.41875,75.44925,0.030500000000003524,False,0.14974999999998317,0.1802499999999867,1,0.4722313427785768,75.43325,0.014499999999998181,0.016000000000005343,32.78688524589785
Mean1,75.59899999999999,75.59899999999999,75.62675,0.02775000000001171,False,0.1527499999999975,0.1805000000000092,1,0.45578330922003785,75.61275,0.013750000000015916,0.013999999999995794,36.03603603602083
Mean1,75.7795,75.7795,75.80775,0.028249999999999886,False,0.14849999999999852,0.1767499999999984,1,0.458131385894215,75.79325,0.013750000000001705,0.014499999999998181,35.398230088495716
Mean1,75.95625,75.95625,75.98725,0.03100000000000591,False,0.14724999999999966,0.17825000000000557,1,0.490027058439031,75.97225,0.016000000000005343,0.015000000000000568,32.25806451612288
Mean1,76.1345,76.1345,76.1645,0.030000000000001137,False,0.15075000000000216,0.1807500000000033,1,0.4739091591880062,76.14875,0.014250000000004093,0.015749999999997044,33.33333333333207
Mean1,76.31525,76.31525,76.343,0.0277499999999975,False,0.1525000000000034,0.1802500000000009,1,0.45174504536733073,76.32900000000001,0.013750000000001705,0.013999999999995794,36.036036036039285
Mean1,76.4955,76.4955,76.524,0.028499999999993975,False,0.14849999999999852,0.1769999999999925,1,0.4591795416052999,76.50925000000001,0.013750000000001705,0.01474999999999227,35.087719298253035
Mean1,76.6725,76.6725,76.70325,0.030749999999997613,False,0.14750000000000796,0.17825000000000557,1,0.4823512463489027,76.6885,0.016000000000005343,0.01474999999999227,32.52032520325456
Mean1,76.85075,76.85075,76.8805,0.029749999999992838,False,0.15099999999999625,0.18074999999998909,1,0.46746886931766424,76.865,0.014249999999989882,0.015500000000002956,33.613445378159355
Mean1,77.0315,77.0315,77.05975,0.028249999999999886,False,0.15175000000000693,0.18000000000000682,1,0.46791877412524796,77.04575,0.014250000000004093,0.013999999999995794,35.398230088495716
Mean1,77.2115,77.2115,77.2405,0.028999999999996362,False,0.14799999999999613,0.1769999999999925,1,0.46923694005484196,77.2255,0.013999999999995794,0.015000000000000568,34.48275862069398
Mean1,77.3885,77.3885,77.41925,0.030750000000011823,False,0.14799999999999613,0.17875000000000796,1,0.48020110359893536,77.40425,0.015750000000011255,0.015000000000000568,32.52032520323953
Mean1,77.56725,77.56725,77.597,0.029749999999992838,False,0.15125000000000455,0.18099999999999739,1,0.46827449234166946,77.5815,0.014250000000004093,0.015499999999988745,33.613445378159355
Mean1,77.74825,77.74825,77.77600000000001,0.02775000000001171,False,0.1522499999999951,0.18000000000000682,1,0.4523531138679287,77.76225,0.013999999999995794,0.013750000000015916,36.03603603602083
Mean1,77.92825,77.92825,77.957,0.028749999999988063,False,0.14850000000001273,0.1772500000000008,1,0.4661116117698621,77.94225,0.013999999999995794,0.01474999999999227,34.78260869566662
Mean1,78.1055,78.1055,78.1365,0.0309999999999917,False,0.14775000000000205,0.17874999999999375,1,0.49761273182525156,78.1215,0.015999999999991132,0.015000000000000568,32.258064516137665
Mean1,78.28425,78.28425,78.314,0.029749999999992838,False,0.15125000000000455,0.18099999999999739,1,0.4744499941577342,78.2985,0.014250000000004093,0.015499999999988745,33.613445378159355
Mean1,78.46525,78.46525,78.49275,0.02750000000000341,False,0.1530000000000058,0.1805000000000092,1,0.45274316639586654,78.479,0.013750000000001705,0.013750000000001705,36.363636363631855
Mean1,78.64575,78.64575,78.67425,0.028499999999993975,False,0.14875000000000682,0.1772500000000008,1,0.45948855685466083,78.65950000000001,0.013750000000001705,0.01474999999999227,35.087719298253035
Mean1,78.82300000000001,78.82300000000001,78.85375,0.030749999999997613,False,0.14774999999998784,0.17849999999998545,1,0.4840113980665338,78.839,0.015999999999991132,0.01475000000000648,32.52032520325456
Mean1,79.0015,79.0015,79.03175,0.030250000000009436,False,0.15024999999999977,0.1805000000000092,1,0.47389598469837046,79.01575,0.014250000000004093,0.016000000000005343,33.05785123965911
Mean1,79.182,79.182,79.2105,0.028499999999993975,False,0.1527499999999975,0.18124999999999147,1,0.46963616617988946,79.19625,0.014250000000004093,0.014249999999989882,35.087719298253035
Mean1,79.36325,79.36325,79.39175,0.028500000000008185,False,0.1495000000000033,0.17800000000001148,1,0.47314399441414784,79.37725,0.014000000000010004,0.014499999999998181,35.087719298235534
Mean1,79.54125,79.54125,79.5715,0.030249999999995225,False,0.14825000000000443,0.17849999999999966,1,0.47605972436509364,79.55675000000001,0.015500000000002956,0.01474999999999227,33.05785123967464
Mean1,79.71975,79.71975,79.75025,0.030499999999989313,False,0.1492500000000092,0.17974999999999852,1,0.4772025951794045,79.7345,0.01474999999999227,0.015749999999997044,32.786885245913126
Mean1,79.8995,79.8995,79.92825,0.028750000000002274,False,0.1527499999999975,0.18149999999999977,1,0.46219756866566913,79.9135,0.013999999999995794,0.01475000000000648,34.78260869564942
Mean1,80.081,80.081,80.10875,0.0277499999999975,False,0.15125000000000455,0.17900000000000205,1,0.45497448223654546,80.09475,0.013750000000001705,0.013999999999995794,36.036036036039285
Mean1,80.26,80.26,80.2895,0.02949999999999875,False,0.14799999999999613,0.17749999999999488,1,0.4743502292256248,80.27475,0.01474999999999227,0.01475000000000648,33.8983050847472
Mean1,80.4375,80.4375,80.46875,0.03125,False,0.14849999999999852,0.17974999999999852,1,0.492002148061366,80.453,0.015500000000002956,0.015749999999997044,32.0
Mean1,80.61725,80.61725,80.64675,0.02949999999999875,False,0.15175000000000693,0.18125000000000568,1,0.47046404109217344,80.6315,0.014250000000004093,0.015249999999994657,33.8983050847472
Mean1,80.7985,80.7985,80.82625,0.0277499999999975,False,0.1532499999999999,0.18099999999999739,1,0.45365145170561144,80.8125,0.013999999999995794,0.013750000000001705,36.036036036039285
Mean1,80.9795,80.9795,81.00775,0.028249999999999886,False,0.14999999999999147,0.17824999999999136,1,0.45916725280244847,80.99325,0.013750000000001705,0.014499999999998181,35.398230088495716
Mean1,81.15775,81.15775,81.188,0.030250000000009436,False,0.14799999999999613,0.17825000000000557,1,0.48128579144520844,81.17325,0.015500000000002956,0.01475000000000648,33.05785123965911
Mean1,81.336,81.336,81.36675,0.030749999999997613,False,0.1495000000000033,0.1802500000000009,1,0.47820898711238097,81.35075,0.01475000000000648,0.015999999999991132,32.52032520325456
Mean1,81.51625,81.51625,81.54525,0.028999999999996362,False,0.1525000000000034,0.18149999999999977,1,0.48214020428330445,81.5305,0.014250000000004093,0.01474999999999227,34.48275862069398
Mean1,81.69775,81.69775,81.7255,0.0277499999999975,False,0.1525000000000034,0.1802500000000009,1,0.457120887573976,81.71175,0.013999999999995794,0.013750000000001705,36.036036036039285
Mean1,81.878,81.878,81.907,0.028999999999996362,False,0.1490000000000009,0.17799999999999727,1,0.46417998072557826,81.89225,0.014250000000004093,0.01474999999999227,34.48275862069398
Mean1,82.056,82.056,82.08675,0.030749999999997613,False,0.14800000000001035,0.17875000000000796,1,0.4864608452580216,82.072,0.016000000000005343,0.01474999999999227,32.52032520325456
Mean1,82.23475,82.23475,82.265,0.030249999999995225,False,0.15075000000000216,0.18099999999999739,1,0.4724251944341417,82.249,0.014249999999989882,0.016000000000005343,33.05785123967464
Mean1,82.41575,82.41575,82.444,0.028249999999999886,False,0.15349999999999397,0.18174999999999386,1,0.46135835082374294,82.42975,0.013999999999995794,0.014250000000004093,35.398230088495716
Mean1,82.5975,82.5975,82.6255,0.028000000000005798,False,0.15149999999999864,0.17950000000000443,1,0.4681390695670306,82.61125,0.013750000000001705,0.014250000000004093,35.71428571427832
Mean1,82.777,82.777,82.80625,0.02925000000000466,False,0.149249999999995,0.17849999999999966,1,0.47393099516599535,82.7915,0.014499999999998181,0.01475000000000648,34.18803418802874
Mean1,82.9555,82.9555,82.98625,0.030749999999997613,False,0.14825000000000443,0.17900000000000205,1,0.48244612863729586,82.97125,0.015749999999997044,0.015000000000000568,32.52032520325456
Mean1,83.1345,83.1345,83.1645,0.030000000000001137,False,0.15099999999999625,0.18099999999999739,1,0.47076533630554573,83.14875,0.014250000000004093,0.015749999999997044,33.33333333333207
Mean1,83.3155,83.3155,83.3435,0.028000000000005798,False,0.15350000000000819,0.18150000000001398,1,0.4600023938172005,83.3295,0.013999999999995794,0.014000000000010004,35.71428571427832
Mean1,83.49700000000001,83.49700000000001,83.525,0.027999999999991587,False,0.15099999999999625,0.17899999999998784,1,0.459309748734641,83.51075,0.013749999999987494,0.014250000000004093,35.714285714296444
Mean1,83.676,83.676,83.70575,0.029749999999992838,False,0.14875000000000682,0.17849999999999966,1,0.48989552915678686,83.691,0.015000000000000568,0.01474999999999227,33.613445378159355
Mean1,83.8545,83.8545,83.8855,0.0309999999999917,False,0.14875000000000682,0.17974999999999852,1,0.49075447988524284,83.87025,0.015749999999997044,0.015249999999994657,32.258064516137665
Mean1,84.03425,84.03425,84.064,0.029749999999992838,False,0.15150000000001285,0.18125000000000568,1,0.46816779260037994,84.0485,0.014250000000004093,0.015499999999988745,33.613445378159355
Mean1,84.2155,84.2155,84.2435,0.027999999999991587,False,0.15350000000000819,0.18149999999999977,1,0.45680888213782933,84.2295,0.013999999999995794,0.013999999999995794,35.714285714296444
Mean1,84.397,84.397,84.425,0.027999999999991587,False,0.15149999999999864,0.17949999999999022,1,0.4545324319045851,84.41075000000001,0.013750000000001705,0.014249999999989882,35.714285714296444
Mean1,84.5765,84.5765,84.60600000000001,0.02950000000001296,False,0.1487499999999926,0.17825000000000557,1,0.4751161174080523,84.59125,0.01475000000000648,0.01475000000000648,33.89830508473087
Mean1,84.75475,84.75475,84.78575,0.0309999999999917,False,0.14850000000001273,0.17950000000000443,1,0.49612081066412794,84.7705,0.015749999999997044,0.015249999999994657,32.258064516137665
Mean1,84.93425,84.93425,84.9645,0.030249999999995225,False,0.15099999999999625,0.18124999999999147,1,0.4751733587556243,84.94875,0.014499999999998181,0.015749999999997044,33.05785123967464
Mean1,85.1155,85.1155,85.14375,0.028249999999999886,False,0.15375000000000227,0.18200000000000216,1,0.4552840825237801,85.12950000000001,0.014000000000010004,0.014249999999989882,35.398230088495716
Mean1,85.2975,85.2975,85.32525,0.0277499999999975,False,0.15200000000000102,0.17974999999999852,1,0.4545321486236332,85.31125,0.013750000000001705,0.013999999999995794,36.036036036039285
Mean1,85.47725,85.47725,85.5065,0.02925000000000466,False,0.1490000000000009,0.17825000000000557,1,0.4716345886670193,85.4915,0.014250000000004093,0.015000000000000568,34.18803418802874
Mean1,85.6555,85.6555,85.68625,0.030749999999997613,False,0.1490000000000009,0.17974999999999852,1,0.48328080786053745,85.67150000000001,0.016000000000005343,0.01474999999999227,32.52032520325456
Mean1,85.83525,85.83525,85.86575,0.030500000000003524,False,0.15024999999999977,0.1807500000000033,1,0.48571575482764373,85.85000000000001,0.01475000000000648,0.015749999999997044,32.78688524589785
Mean1,86.016,86.016,86.04475,0.028749999999988063,False,0.1532499999999999,0.18199999999998795,1,0.4632708158290941,86.03025,0.014249999999989882,0.014499999999998181,34.78260869566662
Mean1,86.198,86.198,86.22575,0.02775000000001171,False,0.1529999999999916,0.1807500000000033,1,0.45400498000778233,86.212,0.014000000000010004,0.013750000000001705,36.03603603602083
Mean1,86.37875,86.37875,86.4075,0.028750000000002274,False,0.1495000000000033,0.17825000000000557,1,0.46412146022375805,86.39275,0.014000000000010004,0.01474999999999227,34.78260869564942
Mean1,86.557,86.557,86.58775,0.030749999999997613,False,0.14825000000000443,0.17900000000000205,1,0.4860478178950079,86.57275,0.015749999999997044,0.015000000000000568,32.52032520325456
Mean1,86.736,86.736,86.76675,0.030749999999997613,False,0.1495000000000033,0.1802500000000009,1,0.47897679053311293,86.75075,0.01474999999999227,0.016000000000005343,32.52032520325456
Mean1,86.91625,86.91625,86.94575,0.02949999999999875,False,0.1524999999999892,0.18199999999998795,1,0.4860144136604249,86.93075,0.014499999999998181,0.015000000000000568,33.8983050847472
Mean1,87.09825,87.09825,87.126,0.02775000000001171,False,0.15349999999999397,0.18125000000000568,1,0.4583524716724856,87.11225,0.014000000000010004,0.013750000000001705,36.03603603602083
Mean1,87.2795,87.2795,87.30799999999999,0.028499999999993975,False,0.15075000000000216,0.17924999999999613,1,0.45876397689048576,87.29350000000001,0.014000000000010004,0.01449999999998397,35.087719298253035
Mean1,87.45875,87.45875,87.48875,0.030000000000001137,False,0.1490000000000009,0.17900000000000205,1,0.4809241272430784,87.474,0.015250000000008868,0.01474999999999227,33.33333333333207
Mean1,87.63775,87.63775,87.6685,0.030749999999997613,False,0.1492500000000092,0.18000000000000682,1,0.4823768100830671,87.653,0.015250000000008868,0.015499999999988745,32.52032520325456
Mean1,87.81775,87.81775,87.8475,0.029749999999992838,False,0.15149999999999864,0.18124999999999147,1,0.46612275662477737,87.83200000000001,0.014250000000004093,0.015499999999988745,33.613445378159355
Mean1,87.999,87.999,88.0275,0.028500000000008185,False,0.1529999999999916,0.18149999999999977,1,0.4775114588858083,88.013,0.014000000000010004,0.014499999999998181,35.087719298235534
Mean1,88.1805,88.1805,88.2085,0.028000000000005798,False,0.15174999999999272,0.17974999999999852,1,0.45247287124267227,88.19425,0.013750000000001705,0.014250000000004093,35.71428571427832
Mean1,88.36025,88.36025,88.38975,0.02950000000001296,False,0.1489999999999867,0.17849999999999966,1,0.47263269354726783,88.37475,0.014500000000012392,0.015000000000000568,33.89830508473087
Mean1,88.53875,88.53875,88.5695,0.030750000000011823,False,0.1490000000000009,0.17975000000001273,1,0.4833718170680647,88.5545,0.015750000000011255,0.015000000000000568,32.52032520323953
Mean1,88.7185,88.7185,88.74875,0.030249999999995225,False,0.15075000000000216,0.18099999999999739,1,0.475089045348835,88.73275,0.014249999999989882,0.016000000000005343,33.05785123967464
Mean1,88.8995,88.8995,88.928,0.028499999999993975,False,0.1532499999999999,0.18174999999999386,1,0.4658502512841925,88.9135,0.013999999999995794,0.014499999999998181,35.087719298253035
Mean1,89.08125,89.08125,89.1095,0.028249999999999886,False,0.1527499999999975,0.18099999999999739,1,0.46923209965542906,89.0955,0.014250000000004093,0.013999999999995794,35.398230088495716
Mean1,89.26225,89.26225,89.29075,0.028500000000008185,False,0.15024999999999977,0.17875000000000796,1,0.46052563099948385,89.276,0.013750000000001705,0.01475000000000648,35.087719298235534
Mean1,89.441,89.441,89.47125,0.030249999999995225,False,0.14875000000000682,0.17900000000000205,1,0.483613500925824,89.4565,0.015500000000002956,0.01474999999999227,33.05785123967464
Mean1,89.62,89.62,89.65075,0.030749999999997613,False,0.1495000000000033,0.1802500000000009,1,0.48085103091188014,89.635,0.015000000000000568,0.015749999999997044,32.52032520325456
Mean1,89.80025,89.80025,89.82975,0.02949999999999875,False,0.15200000000000102,0.18149999999999977,1,0.4680298764237431,89.8145,0.014249999999989882,0.015250000000008868,33.8983050847472
Mean1,89.98175,89.98175,90.01,0.028249999999999886,False,0.15374999999998806,0.18199999999998795,1,0.47108155670259544,89.99575,0.013999999999995794,0.014250000000004093,35.398230088495716
Mean1,90.16375,90.16375,90.19175,0.028000000000005798,False,0.15175000000000693,0.17975000000001273,1,0.46284421514523894,90.1775,0.013750000000001705,0.014250000000004093,35.71428571427832
Mean1,90.3435,90.3435,90.37299999999999,0.02949999999998454,False,0.1492500000000092,0.17874999999999375,1,0.47042775949444404,90.358,0.014499999999998181,0.014999999999986358,33.89830508476353
Mean1,90.52225,90.52225,90.55275,0.030500000000003524,False,0.1490000000000009,0.17950000000000443,1,0.48493990337123,90.538,0.015749999999997044,0.01475000000000648,32.78688524589785
Mean1,90.70175,90.70175,90.73200000000001,0.030250000000009436,False,0.15074999999998795,0.18099999999999739,1,0.47458269002203224,90.71600000000001,0.014250000000004093,0.016000000000005343,33.05785123965911
Mean1,90.88275,90.88275,90.91125,0.028499999999993975,False,0.1532499999999999,0.18174999999999386,1,0.46455674541546066,90.89675,0.013999999999995794,0.014499999999998181,35.087719298253035
Mean1,91.0645,91.0645,91.09275,0.028249999999999886,False,0.1525000000000034,0.1807500000000033,1,0.46920386622090327,91.07875,0.014250000000004093,0.013999999999995794,35.398230088495716
Mean1,91.24525,91.24525,91.274,0.028750000000002274,False,0.15049999999999386,0.17924999999999613,1,0.46458004196402347,91.25925000000001,0.014000000000010004,0.01474999999999227,34.78260869564942
Mean1,91.4245,91.4245,91.45475,0.030250000000009436,False,0.1487499999999926,0.17900000000000205,1,0.48371909073823677,91.43975,0.015250000000008868,0.015000000000000568,33.05785123965911
Mean1,91.6035,91.6035,91.63425,0.030749999999997613,False,0.1495000000000033,0.1802500000000009,1,0.48112563007513476,91.6185,0.015000000000000568,0.015749999999997044,32.52032520325456
Mean1,91.78375,91.78375,91.81325,0.02949999999999875,False,0.15225000000000932,0.18175000000000807,1,0.47136438421240473,91.798,0.014250000000004093,0.015249999999994657,33.8983050847472
Mean1,91.9655,91.9655,91.99325,0.0277499999999975,False,0.15399999999999636,0.18174999999999386,1,0.4595156887129602,91.97925000000001,0.013750000000001705,0.013999999999995794,36.036036036039285
Mean1,92.14725,92.14725,92.1755,0.028249999999999886,False,0.15175000000000693,0.18000000000000682,1,0.47458861668670305,92.16125,0.013999999999995794,0.014250000000004093,35.398230088495716
Mean1,92.32725,92.32725,92.3565,0.02924999999999045,False,0.1495000000000033,0.17874999999999375,1,0.4701285080242544,92.3415,0.014249999999989882,0.015000000000000568,34.18803418804535
Mean1,92.506,92.506,92.53675,0.030749999999997613,False,0.14875000000000682,0.17950000000000443,1,0.4849386797336717,92.52175,0.015749999999997044,0.015000000000000568,32.52032520325456
Mean1,92.6855,92.6855,92.71600000000001,0.030500000000003524,False,0.15024999999998556,0.18074999999998909,1,0.4772210596050753,92.7,0.014499999999998181,0.016000000000005343,32.78688524589785
Mean1,92.86625,92.86625,92.89525,0.029000000000010573,False,0.1527499999999833,0.18174999999999386,1,0.4658809127673631,92.8805,0.014250000000004093,0.01475000000000648,34.48275862067708
Mean1,93.04799999999999,93.04799999999999,93.07625,0.028250000000014097,False,0.1529999999999916,0.18125000000000568,1,0.4704558468498706,93.06225,0.014250000000018304,0.013999999999995794,35.39823008847791
Mean1,93.22925,93.22925,93.258,0.028750000000002274,False,0.15075000000000216,0.17950000000000443,1,0.46965840357703614,93.24325,0.014000000000010004,0.01474999999999227,34.78260869564942
Mean1,93.40875,93.40875,93.43875,0.030000000000001137,False,0.149249999999995,0.17924999999999613,1,0.4799078110533816,93.42375,0.015000000000000568,0.015000000000000568,33.33333333333207
Mean1,93.588,93.588,93.61875,0.030750000000011823,False,0.1490000000000009,0.17975000000001273,1,0.48411037380120364,93.6035,0.015500000000002956,0.015250000000008868,32.52032520323953
Mean1,93.76775,93.76775,93.79799999999999,0.030249999999981014,False,0.15100000000001046,0.18124999999999147,1,0.47433362029044884,93.782,0.014249999999989882,0.015999999999991132,33.05785123969017
Mean1,93.949,93.949,93.9775,0.028500000000008185,False,0.1529999999999916,0.18149999999999977,1,0.46146974073482466,93.96300000000001,0.014000000000010004,0.014499999999998181,35.087719298235534
Mean1,94.1305,94.1305,94.15899999999999,0.028499999999993975,False,0.15200000000001523,0.1805000000000092,1,0.47499872703833607,94.14475,0.014250000000004093,0.014249999999989882,35.087719298253035
Mean1,94.311,94.311,94.34025,0.02924999999999045,False,0.14974999999999739,0.17899999999998784,1,0.47502115679512597,94.32525,0.014249999999989882,0.015000000000000568,34.18803418804535
Mean1,94.49,94.49,94.5205,0.030500000000003524,False,0.149249999999995,0.17974999999999852,1,0.4845367067795467,94.50575,0.015750000000011255,0.01474999999999227,32.78688524589785
Mean1,94.66975,94.66975,94.70075,0.03100000000000591,False,0.149249999999995,0.1802500000000009,1,0.48272054371125184,94.68475000000001,0.01500000000001478,0.015999999999991132,32.25806451612288
Mean1,94.85,94.85,94.8795,0.02949999999999875,False,0.15225000000000932,0.18175000000000807,1,0.4679049993537021,94.86425,0.014250000000004093,0.015249999999994657,33.8983050847472
Mean1,95.03175,95.03175,95.05975,0.027999999999991587,False,0.15375000000000227,0.18174999999999386,1,0.4576371872508003,95.04575,0.013999999999995794,0.013999999999995794,35.714285714296444
Mean1,95.2135,95.2135,95.24175,0.028249999999999886,False,0.15200000000000102,0.1802500000000009,1,0.4706375492448119,95.2275,0.014000000000010004,0.014249999999989882,35.398230088495716
Mean1,95.39375,95.39375,95.42299999999999,0.02924999999999045,False,0.15050000000000807,0.17974999999999852,1,0.4724827881204191,95.40825,0.014499999999998181,0.01474999999999227,34.18803418804535
Mean1,95.5735,95.5735,95.604,0.030500000000003524,False,0.1495000000000033,0.18000000000000682,1,0.4867433475907573,95.589,0.015500000000002956,0.015000000000000568,32.78688524589785
Mean1,95.7535,95.7535,95.78425,0.030749999999997613,False,0.1495000000000033,0.1802500000000009,1,0.4840169207943969,95.7685,0.015000000000000568,0.015749999999997044,32.52032520325456
Mean1,95.93375,95.93375,95.96375,0.030000000000001137,False,0.15174999999999272,0.18174999999999386,1,0.47380354315733525,95.94800000000001,0.014250000000004093,0.015749999999997044,33.33333333333207
Mean1,96.1155,96.1155,96.14375,0.028249999999999886,False,0.15375000000000227,0.18200000000000216,1,0.45736447073252007,96.12975,0.014250000000004093,0.013999999999995794,35.398230088495716
Mean1,96.2975,96.2975,96.32575,0.028249999999999886,False,0.1532499999999999,0.18149999999999977,1,0.476909208784511,96.31175,0.014250000000004093,0.013999999999995794,35.398230088495716
Mean1,96.479,96.479,96.50725,0.028249999999999886,False,0.15125000000000455,0.17950000000000443,1,0.4614833736261272,96.49275,0.013750000000001705,0.014499999999998181,35.398230088495716
Mean1,96.6585,96.6585,96.6885,0.030000000000001137,False,0.14949999999998909,0.17949999999999022,1,0.48054505100574624,96.6735,0.015000000000000568,0.015000000000000568,33.33333333333207
Mean1,96.838,96.838,96.86875,0.030750000000011823,False,0.1492499999999808,0.1799999999999926,1,0.48343295248873663,96.8535,0.015500000000002956,0.015250000000008868,32.52032520323953
Mean1,97.01799999999999,97.01799999999999,97.0485,0.030500000000017735,False,0.15075000000000216,0.1812500000000199,1,0.4784908232815555,97.0325,0.014500000000012392,0.016000000000005343,32.78688524588257
Mean1,97.19925,97.19925,97.22825,0.028999999999996362,False,0.1529999999999916,0.18199999999998795,1,0.4696959182520109,97.21325,0.013999999999995794,0.015000000000000568,34.48275862069398
Mean1,97.38125,97.38125,97.4095,0.028249999999999886,False,0.15349999999999397,0.18174999999999386,1,0.47677368693702804,97.39525,0.014000000000010004,0.014249999999989882,35.398230088495716
Mean1,97.56299999999999,97.56299999999999,97.59100000000001,0.02800000000002001,False,0.1519999999999868,0.18000000000000682,1,0.4558551549542459,97.57675,0.013750000000015916,0.014250000000004093,35.71428571426019
Mean1,97.743,97.743,97.7725,0.02949999999999875,False,0.1497500000000116,0.17925000000001035,1,0.47424089539663705,97.75750000000001,0.014500000000012392,0.014999999999986358,33.8983050847472
Mean1,97.92225,97.92225,97.95299999999999,0.0307499999999834,False,0.14900000000001512,0.17974999999999852,1,0.48788159938178,97.938,0.015749999999997044,0.014999999999986358,32.520325203269586
Mean1,98.102,98.102,98.1325,0.030499999999989313,False,0.15024999999999977,0.18074999999998909,1,0.48022405264340023,98.11675,0.01474999999999227,0.015749999999997044,32.786885245913126
Mean1,98.28275,98.28275,98.3125,0.02975000000000705,False,0.15200000000000102,0.18175000000000807,1,0.48602555740002173,98.297,0.014250000000004093,0.015500000000002956,33.6134453781433
Mean1,98.4645,98.4645,98.49275,0.028249999999999886,False,0.15399999999999636,0.18224999999999625,1,0.47140933768771703,98.47875,0.014250000000004093,0.013999999999995794,35.398230088495716
Mean1,98.64675,98.64675,98.6745,0.0277499999999975,False,0.1527500000000117,0.1805000000000092,1,0.45274149456765794,98.6605,0.013750000000001705,0.013999999999995794,36.036036036039285
Mean1,98.82725,98.82725,98.85625,0.028999999999996362,False,0.15049999999999386,0.17949999999999022,1,0.4672327524223736,98.8415,0.014249999999989882,0.01475000000000648,34.48275862069398
Mean1,99.00675,99.00675,99.03725,0.030500000000003524,False,0.149249999999995,0.17974999999999852,1,0.48427798095836505,99.02225,0.015500000000002956,0.015000000000000568,32.78688524589785
Mean1,99.1865,99.1865,99.21725,0.030750000000011823,False,0.149249999999995,0.18000000000000682,1,0.4826447842340775,99.20175,0.015250000000008868,0.015500000000002956,32.52032520323953
Mean1,99.3665,99.3665,99.39675,0.030249999999995225,False,0.15149999999999864,0.18174999999999386,1,0.4725735658160564,99.381,0.014499999999998181,0.015749999999997044,33.05785123967464
Mean1,99.54825,99.54825,99.5775,0.02925000000000466,False,0.1530000000000058,0.18225000000001046,1,0.48004052311151363,99.56275000000001,0.014500000000012392,0.01474999999999227,34.18803418802874
Mean1,99.7305,99.7305,99.75825,0.0277499999999975,False,0.15349999999999397,0.18124999999999147,1,0.4526989725381395,99.7445,0.013999999999995794,0.013750000000001705,36.036036036039285
Mean1,99.91175,99.91175,99.94025,0.028500000000008185,False,0.15149999999999864,0.18000000000000682,1,0.45925337626515234,99.9255,0.013750000000001705,0.01475000000000648,35.087719298235534
Mean1,100.09175,100.09175,100.1215,0.029749999999992838,False,0.1495000000000033,0.17924999999999613,1,0.4795940054025515,100.1065,0.01474999999999227,0.015000000000000568,33.613445378159355
Mean1,100.271,100.271,100.30175,0.030749999999997613,False,0.1495000000000033,0.1802500000000009,1,0.48515621281146554,100.287,0.016000000000005343,0.01474999999999227,32.52032520325456
Mean1,100.45125,100.45125,100.48175,0.030500000000003524,False,0.15049999999999386,0.18099999999999739,1,0.4729812131831327,100.46575,0.014499999999998181,0.016000000000005343,32.78688524589785
Mean1,100.63225,100.63225,100.66225,0.030000000000001137,False,0.15200000000000102,0.18200000000000216,1,0.4900685148450155,100.64675,0.014499999999998181,0.015500000000002956,33.33333333333207
Mean1,100.81425,100.81425,100.84200000000001,0.02775000000001171,False,0.15424999999999045,0.18200000000000216,1,0.4558889606832955,100.82825,0.013999999999995794,0.013750000000015916,36.03603603602083
Mean1,100.99625,100.99625,101.02425,0.027999999999991587,False,0.1525000000000034,0.180499999999995,1,0.4552436815032915,101.01,0.013750000000001705,0.014249999999989882,35.714285714296444
Mean1,101.17675,101.17675,101.20575,0.028999999999996362,False,0.15075000000000216,0.17974999999999852,1,0.46857921045804785,101.191,0.014250000000004093,0.01474999999999227,34.48275862069398
Mean1,101.3565,101.3565,101.38675,0.030250000000009436,False,0.14949999999998909,0.17974999999999852,1,0.4849768824735352,101.372,0.015500000000002956,0.01475000000000648,33.05785123965911
Mean1,101.53625,101.53625,101.56700000000001,0.030750000000011823,False,0.15000000000000568,0.1807500000000175,1,0.48337588563511175,101.55125,0.015000000000000568,0.015750000000011255,32.52032520323953
Mean1,101.71700000000001,101.71700000000001,101.74775,0.0307499999999834,False,0.15050000000000807,0.18124999999999147,1,0.49258978580865936,101.7315,0.01449999999998397,0.01624999999999943,32.520325203269586
Mean1,101.89825,101.89825,101.927,0.028750000000002274,False,0.15349999999999397,0.18224999999999625,1,0.46382142727284115,101.91225,0.013999999999995794,0.01475000000000648,34.78260869564942
Mean1,102.0805,102.0805,102.10825,0.0277499999999975,False,0.15399999999999636,0.18174999999999386,1,0.45549185468488296,102.0945,0.013999999999995794,0.013750000000001705,36.036036036039285
Mean1,102.26225,102.26225,102.29025,0.028000000000005798,False,0.1522499999999951,0.1802500000000009,1,0.4577751089919846,102.276,0.013750000000001705,0.014250000000004093,35.71428571427832
Mean1,102.4425,102.4425,102.47200000000001,0.02950000000001296,False,0.15024999999998556,0.17974999999999852,1,0.4730264196253507,102.45700000000001,0.014500000000012392,0.015000000000000568,33.89830508473087
Mean1,102.62225,102.62225,102.65299999999999,0.030749999999997613,False,0.1497500000000116,0.1805000000000092,1,0.49955895183731847,102.63825,0.016000000000005343,0.01474999999999227,32.52032520325456
Mean1,102.80275,102.80275,102.834,0.03125,False,0.1495000000000033,0.1807500000000033,1,0.5032676047981212,102.8185,0.015749999999997044,0.015500000000002956,32.0
Mean1,102.9835,102.9835,103.01375,0.030249999999995225,False,0.15125000000000455,0.18149999999999977,1,0.47013433925508713,102.99775,0.014249999999989882,0.016000000000005343,33.05785123967464
Mean1,103.165,103.165,103.194,0.028999999999996362,False,0.1532499999999999,0.18224999999999625,1,0.4651437508811401,103.17925,0.014249999999989882,0.01475000000000648,34.48275862069398
Mean1,103.34725,103.34725,103.37525,0.027999999999991587,False,0.15425000000000466,0.18224999999999625,1,0.4575601373315321,103.36125,0.013999999999995794,0.013999999999995794,35.714285714296444
Mean1,103.5295,103.5295,103.55725,0.0277499999999975,False,0.1532499999999999,0.18099999999999739,1,0.45796376099165675,103.54325,0.013750000000001705,0.013999999999995794,36.036036036039285
Mean1,103.7105,103.7105,103.73925,0.028750000000002274,False,0.15200000000000102,0.1807500000000033,1,0.4621809004463645,103.72425,0.013750000000001705,0.015000000000000568,34.78260869564942
Mean1,103.89125,103.89125,103.92125,0.030000000000001137,False,0.1495000000000033,0.17950000000000443,1,0.49599910451086077,103.90625,0.015000000000000568,0.015000000000000568,33.33333333333207
Mean1,104.07075,104.07075,104.10175,0.0309999999999917,False,0.1495000000000033,0.180499999999995,1,0.4858735905972406,104.08675000000001,0.016000000000005343,0.014999999999986358,32.258064516137665
Mean1,104.25125,104.25125,104.28200000000001,0.030750000000011823,False,0.15049999999999386,0.18125000000000568,1,0.47790597502621257,104.26625,0.015000000000000568,0.015750000000011255,32.52032520323953
Mean1,104.4325,104.4325,104.4625,0.030000000000001137,False,0.15200000000000102,0.18200000000000216,1,0.47030060790439426,104.44675000000001,0.014250000000004093,0.015749999999997044,33.33333333333207
Mean1,104.6145,104.6145,104.64299999999999,0.028499999999979764,False,0.15375000000001648,0.18224999999999625,1,0.4630854339093992,104.6285,0.013999999999995794,0.01449999999998397,35.08771929827053
Mean1,104.79675,104.79675,104.82475,0.027999999999991587,False,0.15425000000000466,0.18224999999999625,1,0.4730377624661753,104.81075,0.013999999999995794,0.013999999999995794,35.714285714296444
Mean1,104.979,104.979,105.007,0.028000000000005798,False,0.15349999999999397,0.18149999999999977,1,0.4594071764655491,104.99275,0.013750000000001705,0.014250000000004093,35.71428571427832
Mean1,105.1605,105.1605,105.189,0.028499999999993975,False,0.15175000000000693,0.1802500000000009,1,0.46277579167440425,105.17425,0.013750000000001705,0.01474999999999227,35.087719298253035
Mean1,105.34075,105.34075,105.37075,0.030000000000001137,False,0.15024999999999977,0.1802500000000009,1,0.4799473309021549,105.35575,0.015000000000000568,0.015000000000000568,33.33333333333207
Mean1,105.521,105.521,105.55175,0.030749999999997613,False,0.1495000000000033,0.1802500000000009,1,0.48759096076825326,105.53675,0.015749999999997044,0.015000000000000568,32.52032520325456
Mean1,105.70125,105.70125,105.73175,0.030500000000003524,False,0.15074999999998795,0.18124999999999147,1,0.47712536011909173,105.71600000000001,0.01475000000000648,0.015749999999997044,32.78688524589785
Mean1,105.8825,105.8825,105.913,0.030500000000003524,False,0.15099999999999625,0.18149999999999977,1,0.49273243010220336,105.897,0.014500000000012392,0.015999999999991132,32.78688524589785
Mean1,106.064,106.064,106.0925,0.028500000000008185,False,0.15399999999999636,0.18250000000000455,1,0.46174360169339906,106.07825,0.014250000000004093,0.014250000000004093,35.087719298235534
Mean1,106.2465,106.2465,106.27425,0.0277499999999975,False,0.15449999999999875,0.18224999999999625,1,0.4567265144643251,106.26050000000001,0.014000000000010004,0.013749999999987494,36.036036036039285
Mean1,106.42875,106.42875,106.45675,0.028000000000005798,False,0.1530000000000058,0.1810000000000116,1,0.4581712298637671,106.4425,0.013750000000001705,0.014250000000004093,35.71428571427832
Mean1,106.60975,106.60975,106.63875,0.028999999999996362,False,0.15075000000000216,0.17974999999999852,1,0.46882764140351735,106.62375,0.013999999999995794,0.015000000000000568,34.48275862069398
Mean1,106.7895,106.7895,106.82,0.030499999999989313,False,0.15050000000000807,0.18099999999999739,1,0.498762616524278,106.805,0.015500000000002956,0.014999999999986358,32.786885245913126
Mean1,106.9705,106.9705,107.00175,0.03125,False,0.1492500000000092,0.1805000000000092,1,0.4980995259903911,106.98675,0.01624999999999943,0.015000000000000568,32.0
Mean1,107.15100000000001,107.15100000000001,107.18175,0.0307499999999834,False,0.15075000000000216,0.18149999999998556,1,0.47896196244510764,107.166,0.014999999999986358,0.015749999999997044,32.520325203269586
Mean1,107.3325,107.3325,107.3625,0.030000000000001137,False,0.15175000000000693,0.18175000000000807,1,0.47323795988946904,107.34675,0.014250000000004093,0.015749999999997044,33.33333333333207
Mean1,107.51425,107.51425,107.54299999999999,0.028749999999988063,False,0.15350000000000819,0.18224999999999625,1,0.46502009023443647,107.52850000000001,0.014250000000004093,0.01449999999998397,34.78260869566662
Mean1,107.6965,107.6965,107.72425,0.0277499999999975,False,0.15425000000000466,0.18200000000000216,1,0.45762042133942604,107.7105,0.013999999999995794,0.013750000000001705,36.036036036039285
Mean1,107.8785,107.8785,107.90675,0.028249999999999886,False,0.15349999999999397,0.18174999999999386,1,0.4689377661191721,107.8925,0.013999999999995794,0.014250000000004093,35.398230088495716
Mean1,108.06025,108.06025,108.089,0.028750000000002274,False,0.15149999999999864,0.1802500000000009,1,0.47662862930668637,108.07425,0.014000000000010004,0.01474999999999227,34.78260869564942
Mean1,108.2405,108.2405,108.2705,0.030000000000001137,False,0.15024999999999977,0.1802500000000009,1,0.4759039431869167,108.2555,0.015000000000000568,0.015000000000000568,33.33333333333207
Mean1,108.42075,108.42075,108.4515,0.030749999999997613,False,0.14974999999999739,0.180499999999995,1,0.4858475447589973,108.4365,0.015749999999997044,0.015000000000000568,32.52032520325456
Mean1,108.60125,108.60125,108.632,0.030750000000011823,False,0.15024999999999977,0.1810000000000116,1,0.481779418270771,108.61625000000001,0.01500000000001478,0.015749999999997044,32.52032520323953
Mean1,108.78225,108.78225,108.8125,0.030249999999995225,False,0.15149999999999864,0.18174999999999386,1,0.47305245935452217,108.79675,0.014499999999998181,0.015749999999997044,33.05785123967464
Mean1,108.964,108.964,108.99325,0.02925000000000466,False,0.1532499999999999,0.18250000000000455,1,0.4767590459310076,108.9785,0.014499999999998181,0.01475000000000648,34.18803418802874
Mean1,109.1465,109.1465,109.17475,0.028249999999999886,False,0.15449999999999875,0.18274999999999864,1,0.4727766071107091,109.16075000000001,0.014250000000004093,0.013999999999995794,35.398230088495716
Mean1,109.32925,109.32925,109.35700000000001,0.02775000000001171,False,0.15424999999999045,0.18200000000000216,1,0.4522644522385889,109.343,0.013750000000001705,0.014000000000010004,36.03603603602083
Mean1,109.51125,109.51125,109.53925,0.027999999999991587,False,0.1527500000000117,0.1807500000000033,1,0.4579532063174523,109.525,0.013750000000001705,0.014249999999989882,35.714285714296444
Mean1,109.69200000000001,109.69200000000001,109.72125,0.02924999999999045,False,0.15125000000000455,0.180499999999995,1,0.47026556921421825,109.70625,0.014249999999989882,0.015000000000000568,34.18803418804535
Mean1,109.8725,109.8725,109.90299999999999,0.030499999999989313,False,0.15000000000000568,0.180499999999995,1,0.48446964949952087,109.888,0.015500000000002956,0.014999999999986358,32.786885245913126
Mean1,110.053,110.053,110.08375,0.030749999999997613,False,0.15024999999999977,0.18099999999999739,1,0.48305456231950905,110.069,0.016000000000005343,0.01474999999999227,32.52032520325456
Mean1,110.234,110.234,110.26525,0.03125,False,0.15000000000000568,0.18125000000000568,1,0.49691875484820686,110.24925,0.015250000000008868,0.015999999999991132,32.0
Mean1,110.41525,110.41525,110.44525,0.030000000000001137,False,0.15200000000000102,0.18200000000000216,1,0.4698314927321862,110.4295,0.014250000000004093,0.015749999999997044,33.33333333333207
Mean1,110.59725,110.59725,110.62625,0.028999999999996362,False,0.15350000000000819,0.18250000000000455,1,0.4625944708349844,110.6115,0.014250000000004093,0.01474999999999227,34.48275862069398
Mean1,110.77975,110.77975,110.8075,0.0277499999999975,False,0.15474999999999284,0.18249999999999034,1,0.4565740077708711,110.79375,0.013999999999995794,0.013750000000001705,36.036036036039285
Mean1,110.96225,110.96225,110.99,0.0277499999999975,False,0.15375000000000227,0.18149999999999977,1,0.4536609892825886,110.97625000000001,0.014000000000010004,0.013749999999987494,36.036036036039285
Mean1,111.14375,111.14375,111.1725,0.028750000000002274,False,0.1530000000000058,0.18175000000000807,1,0.4759408430558305,111.158,0.014250000000004093,0.014499999999998181,34.78260869564942
Mean1,111.3255,111.3255,111.35475,0.02924999999999045,False,0.15149999999999864,0.18074999999998909,1,0.47959195984558783,111.33975000000001,0.014250000000004093,0.014999999999986358,34.18803418804535
Mean1,111.50625,111.50625,111.53625,0.030000000000001137,False,0.15050000000000807,0.1805000000000092,1,0.47607733561461485,111.52125000000001,0.01500000000001478,0.014999999999986358,33.33333333333207
Mean1,111.68675,111.68675,111.7175,0.030749999999997613,False,0.15049999999999386,0.18124999999999147,1,0.4821474482746713,111.70275000000001,0.016000000000005343,0.01474999999999227,32.52032520325456
Mean1,111.868,111.868,111.89875,0.030750000000011823,False,0.15074999999998795,0.18149999999999977,1,0.48042615159698715,111.883,0.015000000000000568,0.015750000000011255,32.52032520323953
